# Label: Avanti Sensor 1: EMG 1 Sampling frequency: 1.000000e+003 Number of points: 33000 X start: 0.000000e+000 Unit: V Domain Unit: s
# Label: Avanti Sensor 1: Pitch 1 Sampling frequency: 6.666667e+001 Number of points: 2200 X start: 0.000000e+000 Unit: degrees Domain Unit: s
# Label: Avanti Sensor 1: Roll 1 Sampling frequency: 6.666667e+001 Number of points: 2200 X start: 0.000000e+000 Unit: degrees Domain Unit: s
# Label: Avanti Sensor 1: Yaw 1 Sampling frequency: 6.666667e+001 Number of points: 2200 X start: 0.000000e+000 Unit: degrees Domain Unit: s
# Start Trigger Method: None
# Stop Trigger Method: None
# Use Camera: NO
# Video File Path: 
# System Gain: 1.500000e+002
# A/D card Gain: 1.000000e+000
# Bit Resolution: -1.000000e+000
# Bias: 0.000000e+000
# High pass cutoff frequency: 0.000000e+000
# Low pass cutoff frequency: 0.000000e+000
# System Gain: 1.000000e+000
# A/D card Gain: 1.000000e+000
# Bit Resolution: -1.000000e+000
# Bias: 0.000000e+000
# High pass cutoff frequency: 0.000000e+000
# Low pass cutoff frequency: 0.000000e+000
# System Gain: 1.000000e+000
# A/D card Gain: 1.000000e+000
# Bit Resolution: -1.000000e+000
# Bias: 0.000000e+000
# High pass cutoff frequency: 0.000000e+000
# Low pass cutoff frequency: 0.000000e+000
# System Gain: 1.000000e+000
# A/D card Gain: 1.000000e+000
# Bit Resolution: -1.000000e+000
# Bias: 0.000000e+000
# High pass cutoff frequency: 0.000000e+000
# Low pass cutoff frequency: 0.000000e+000
X [s],Avanti Sensor 1: EMG 1 [V],X [s],Avanti Sensor 1: Pitch 1 [degrees],X [s],Avanti Sensor 1: Roll 1 [degrees],X [s],Avanti Sensor 1: Yaw 1 [degrees]
0.00000e+000,-7.13091e-003,0.00000e+000,-1.80932e+000,0.00000e+000,-3.88316e-001,0.00000e+000,-9.37945e+001
1.00000e-003,-1.05460e-002,1.50000e-002,-1.80652e+000,1.50000e-002,-3.88535e-001,1.50000e-002,-9.38164e+001
2.00000e-003,-1.09864e-002,3.00000e-002,-1.80397e+000,3.00000e-002,-3.86703e-001,3.00000e-002,-9.38255e+001
3.00000e-003,-1.07316e-002,4.50000e-002,-1.79908e+000,4.50000e-002,-3.88371e-001,4.50000e-002,-9.38484e+001
4.00000e-003,-8.57441e-003,6.00000e-002,-1.79939e+000,6.00000e-002,-3.86837e-001,6.00000e-002,-9.38643e+001
5.00000e-003,-4.60981e-003,7.50000e-002,-1.79692e+000,7.50000e-002,-3.87236e-001,7.50000e-002,-9.38662e+001
6.00000e-003,-7.94598e-004,9.00000e-002,-1.79367e+000,9.00000e-002,-3.88217e-001,9.00000e-002,-9.38793e+001
7.00000e-003,2.78831e-003,1.05000e-001,-1.79321e+000,1.05000e-001,-3.89216e-001,1.05000e-001,-9.38938e+001
8.00000e-003,6.33732e-003,1.20000e-001,-1.79234e+000,1.20000e-001,-3.94843e-001,1.20000e-001,-9.39127e+001
9.00000e-003,9.54189e-003,1.35000e-001,-1.79819e+000,1.35000e-001,-3.90691e-001,1.35000e-001,-9.39299e+001
1.00000e-002,1.07763e-002,1.50000e-001,-1.80012e+000,1.50000e-001,-3.90819e-001,1.50000e-001,-9.39469e+001
1.10000e-002,1.03902e-002,1.65000e-001,-1.79978e+000,1.65000e-001,-3.88948e-001,1.65000e-001,-9.39256e+001
1.20000e-002,8.39649e-003,1.80000e-001,-1.80002e+000,1.80000e-001,-3.89565e-001,1.80000e-001,-9.39161e+001
1.30000e-002,5.29833e-003,1.95000e-001,-1.79877e+000,1.95000e-001,-3.94109e-001,1.95000e-001,-9.39308e+001
1.40000e-002,2.02594e-003,2.10000e-001,-1.80237e+000,2.10000e-001,-3.97018e-001,2.10000e-001,-9.39326e+001
1.50000e-002,-1.30083e-003,2.25000e-001,-1.80486e+000,2.25000e-001,-3.97595e-001,2.25000e-001,-9.39697e+001
1.60000e-002,-4.77498e-003,2.40000e-001,-1.80312e+000,2.40000e-001,-3.95842e-001,2.40000e-001,-9.39803e+001
1.70000e-002,-8.77314e-003,2.55000e-001,-1.80683e+000,2.55000e-001,-3.97602e-001,2.55000e-001,-9.39938e+001
1.80000e-002,-1.09780e-002,2.70000e-001,-1.80713e+000,2.70000e-001,-3.94738e-001,2.70000e-001,-9.39766e+001
1.90000e-002,-1.09082e-002,2.85000e-001,-1.80890e+000,2.85000e-001,-3.90162e-001,2.85000e-001,-9.39697e+001
2.00000e-002,-1.03560e-002,3.00000e-001,-1.81555e+000,3.00000e-001,-3.94135e-001,3.00000e-001,-9.39707e+001
2.10000e-002,-7.25679e-003,3.15000e-001,-1.82165e+000,3.15000e-001,-3.90424e-001,3.15000e-001,-9.39791e+001
2.20000e-002,-3.19283e-003,3.30000e-001,-1.82086e+000,3.30000e-001,-3.90118e-001,3.30000e-001,-9.39882e+001
2.30000e-002,5.39467e-004,3.45000e-001,-1.81851e+000,3.45000e-001,-3.91174e-001,3.45000e-001,-9.39907e+001
2.40000e-002,4.14420e-003,3.60000e-001,-1.81387e+000,3.60000e-001,-3.93964e-001,3.60000e-001,-9.39959e+001
2.50000e-002,7.68985e-003,3.75000e-001,-1.81528e+000,3.75000e-001,-3.95118e-001,3.75000e-001,-9.39998e+001
2.60000e-002,1.03674e-002,3.90000e-001,-1.81702e+000,3.90000e-001,-3.86900e-001,3.90000e-001,-9.40051e+001
2.70000e-002,1.07521e-002,4.05000e-001,-1.81776e+000,4.05000e-001,-3.91185e-001,4.05000e-001,-9.40118e+001
2.80000e-002,1.00716e-002,4.20000e-001,-1.81362e+000,4.20000e-001,-3.95890e-001,4.20000e-001,-9.40088e+001
2.90000e-002,7.60525e-003,4.35000e-001,-1.81399e+000,4.35000e-001,-3.89644e-001,4.35000e-001,-9.39989e+001
3.00000e-002,4.41343e-003,4.50000e-001,-1.80791e+000,4.50000e-001,-3.91976e-001,4.50000e-001,-9.40144e+001
3.10000e-002,1.17159e-003,4.65000e-001,-1.81136e+000,4.65000e-001,-3.91765e-001,4.65000e-001,-9.40559e+001
3.20000e-002,-2.19312e-003,4.80000e-001,-1.81001e+000,4.80000e-001,-3.89034e-001,4.80000e-001,-9.40773e+001
3.30000e-002,-5.80993e-003,4.95000e-001,-1.80941e+000,4.95000e-001,-3.87145e-001,4.95000e-001,-9.40973e+001
3.40000e-002,-9.68289e-003,5.10000e-001,-1.81032e+000,5.10000e-001,-3.88171e-001,5.10000e-001,-9.41170e+001
3.50000e-002,-1.09847e-002,5.25000e-001,-1.80707e+000,5.25000e-001,-3.83675e-001,5.25000e-001,-9.41350e+001
3.60000e-002,-1.08441e-002,5.40000e-001,-1.80862e+000,5.40000e-001,-3.82207e-001,5.40000e-001,-9.41369e+001
3.70000e-002,-9.37169e-003,5.55000e-001,-1.80548e+000,5.55000e-001,-3.84729e-001,5.55000e-001,-9.41407e+001
3.80000e-002,-5.59475e-003,5.70000e-001,-1.80488e+000,5.70000e-001,-3.84451e-001,5.70000e-001,-9.41298e+001
3.90000e-002,-1.63787e-003,5.85000e-001,-1.80340e+000,5.85000e-001,-3.87100e-001,5.85000e-001,-9.41279e+001
4.00000e-002,1.97021e-003,6.00000e-001,-1.80294e+000,6.00000e-001,-3.84308e-001,6.00000e-001,-9.41634e+001
4.10000e-002,5.43462e-003,6.15000e-001,-1.80679e+000,6.15000e-001,-3.83236e-001,6.15000e-001,-9.41620e+001
4.20000e-002,8.80906e-003,6.30000e-001,-1.80484e+000,6.30000e-001,-3.83246e-001,6.30000e-001,-9.41656e+001
4.30000e-002,1.06843e-002,6.45000e-001,-1.80978e+000,6.45000e-001,-3.84389e-001,6.45000e-001,-9.41583e+001
4.40000e-002,1.05963e-002,6.60000e-001,-1.81109e+000,6.60000e-001,-3.85320e-001,6.60000e-001,-9.41407e+001
4.50000e-002,9.18706e-003,6.75000e-001,-1.81206e+000,6.75000e-001,-3.75164e-001,6.75000e-001,-9.41110e+001
4.60000e-002,6.26178e-003,6.90000e-001,-1.81438e+000,6.90000e-001,-3.76432e-001,6.90000e-001,-9.40930e+001
4.70000e-002,2.99007e-003,7.05000e-001,-1.81420e+000,7.05000e-001,-3.75886e-001,7.05000e-001,-9.40904e+001
4.80000e-002,-2.92393e-004,7.20000e-001,-1.81401e+000,7.20000e-001,-3.76309e-001,7.20000e-001,-9.41031e+001
4.90000e-002,-3.73062e-003,7.35000e-001,-1.81209e+000,7.35000e-001,-3.76687e-001,7.35000e-001,-9.41105e+001
5.00000e-002,-7.62371e-003,7.50000e-001,-1.81152e+000,7.50000e-001,-3.71639e-001,7.50000e-001,-9.41277e+001
5.10000e-002,-1.08068e-002,7.65000e-001,-1.81359e+000,7.65000e-001,-3.71886e-001,7.65000e-001,-9.41550e+001
5.20000e-002,-1.09867e-002,7.80000e-001,-1.80967e+000,7.80000e-001,-3.70478e-001,7.80000e-001,-9.41716e+001
5.30000e-002,-1.07380e-002,7.95000e-001,-1.81078e+000,7.95000e-001,-3.68196e-001,7.95000e-001,-9.41983e+001
5.40000e-002,-8.60261e-003,8.10000e-001,-1.80961e+000,8.10000e-001,-3.68899e-001,8.10000e-001,-9.42086e+001
5.50000e-002,-4.57389e-003,8.25000e-001,-1.81786e+000,8.25000e-001,-3.66371e-001,8.25000e-001,-9.42117e+001
5.60000e-002,-6.94896e-004,8.40000e-001,-1.81048e+000,8.40000e-001,-3.63180e-001,8.40000e-001,-9.41925e+001
5.70000e-002,2.92259e-003,8.55000e-001,-1.80742e+000,8.55000e-001,-3.67036e-001,8.55000e-001,-9.41971e+001
5.80000e-002,6.45045e-003,8.70000e-001,-1.80617e+000,8.70000e-001,-3.66173e-001,8.70000e-001,-9.41962e+001
5.90000e-002,9.61810e-003,8.85000e-001,-1.80708e+000,8.85000e-001,-3.64430e-001,8.85000e-001,-9.41772e+001
6.00000e-002,1.07971e-002,9.00000e-001,-1.80641e+000,9.00000e-001,-3.66457e-001,9.00000e-001,-9.41844e+001
6.10000e-002,1.03915e-002,9.15000e-001,-1.80826e+000,9.15000e-001,-3.71101e-001,9.15000e-001,-9.41822e+001
6.20000e-002,8.37601e-003,9.30000e-001,-1.80574e+000,9.30000e-001,-3.71708e-001,9.30000e-001,-9.41858e+001
6.30000e-002,5.28356e-003,9.45000e-001,-1.80479e+000,9.45000e-001,-3.72260e-001,9.45000e-001,-9.41855e+001
6.40000e-002,2.04340e-003,9.60000e-001,-1.80106e+000,9.60000e-001,-3.71256e-001,9.60000e-001,-9.41709e+001
6.50000e-002,-1.24779e-003,9.75000e-001,-1.79983e+000,9.75000e-001,-3.64517e-001,9.75000e-001,-9.41613e+001
6.60000e-002,-4.70582e-003,9.90000e-001,-1.79436e+000,9.90000e-001,-3.66870e-001,9.90000e-001,-9.41492e+001
6.70000e-002,-8.70063e-003,1.00500e+000,-1.78793e+000,1.00500e+000,-3.64913e-001,1.00500e+000,-9.41121e+001
6.80000e-002,-1.09716e-002,1.02000e+000,-1.78728e+000,1.02000e+000,-3.66714e-001,1.02000e+000,-9.41081e+001
6.90000e-002,-1.09079e-002,1.03500e+000,-1.78700e+000,1.03500e+000,-3.64761e-001,1.03500e+000,-9.41257e+001
7.00000e-002,-1.01713e-002,1.05000e+000,-1.78916e+000,1.05000e+000,-3.62906e-001,1.05000e+000,-9.41756e+001
7.10000e-002,-6.89860e-003,1.06500e+000,-1.79057e+000,1.06500e+000,-3.62610e-001,1.06500e+000,-9.41997e+001
7.20000e-002,-2.86384e-003,1.08000e+000,-1.79469e+000,1.08000e+000,-3.59685e-001,1.08000e+000,-9.41919e+001
7.30000e-002,8.59724e-004,1.09500e+000,-1.79028e+000,1.09500e+000,-3.58919e-001,1.09500e+000,-9.41940e+001
7.40000e-002,4.44868e-003,1.11000e+000,-1.79149e+000,1.11000e+000,-3.60128e-001,1.11000e+000,-9.41805e+001
7.50000e-002,7.98492e-003,1.12500e+000,-1.78981e+000,1.12500e+000,-3.58782e-001,1.12500e+000,-9.41777e+001
7.60000e-002,1.05205e-002,1.14000e+000,-1.78843e+000,1.14000e+000,-3.58411e-001,1.14000e+000,-9.41736e+001
7.70000e-002,1.07111e-002,1.15500e+000,-1.78887e+000,1.15500e+000,-3.54188e-001,1.15500e+000,-9.41560e+001
7.80000e-002,1.00652e-002,1.17000e+000,-1.78936e+000,1.17000e+000,-3.52326e-001,1.17000e+000,-9.41551e+001
7.90000e-002,7.56429e-003,1.18500e+000,-1.79175e+000,1.18500e+000,-3.47529e-001,1.18500e+000,-9.41799e+001
8.00000e-002,4.34058e-003,1.20000e+000,-1.79510e+000,1.20000e+000,-3.43935e-001,1.20000e+000,-9.41835e+001
8.10000e-002,1.04839e-003,1.21500e+000,-1.79679e+000,1.21500e+000,-3.42206e-001,1.21500e+000,-9.42296e+001
8.20000e-002,-2.35560e-003,1.23000e+000,-1.79692e+000,1.23000e+000,-3.39945e-001,1.23000e+000,-9.42595e+001
8.30000e-002,-5.99725e-003,1.24500e+000,-1.79761e+000,1.24500e+000,-3.41829e-001,1.24500e+000,-9.42586e+001
8.40000e-002,-9.86282e-003,1.26000e+000,-1.79823e+000,1.26000e+000,-3.45317e-001,1.26000e+000,-9.42469e+001
8.50000e-002,-1.09854e-002,1.27500e+000,-1.79366e+000,1.27500e+000,-3.49442e-001,1.27500e+000,-9.42254e+001
8.60000e-002,-1.08629e-002,1.29000e+000,-1.79270e+000,1.29000e+000,-3.54083e-001,1.29000e+000,-9.42114e+001
8.70000e-002,-9.49087e-003,1.30500e+000,-1.79154e+000,1.30500e+000,-3.54684e-001,1.30500e+000,-9.41962e+001
8.80000e-002,-5.75387e-003,1.32000e+000,-1.78667e+000,1.32000e+000,-3.52592e-001,1.32000e+000,-9.41830e+001
8.90000e-002,-1.83996e-003,1.33500e+000,-1.79219e+000,1.33500e+000,-3.47064e-001,1.33500e+000,-9.41892e+001
9.00000e-002,1.77484e-003,1.35000e+000,-1.78766e+000,1.35000e+000,-3.47056e-001,1.35000e+000,-9.41885e+001
9.10000e-002,5.31310e-003,1.36500e+000,-1.78974e+000,1.36500e+000,-3.43636e-001,1.36500e+000,-9.41869e+001
9.20000e-002,8.73588e-003,1.38000e+000,-1.78522e+000,1.38000e+000,-3.47484e-001,1.38000e+000,-9.41885e+001
9.30000e-002,1.06547e-002,1.39500e+000,-1.78390e+000,1.39500e+000,-3.45739e-001,1.39500e+000,-9.42165e+001
9.40000e-002,1.05782e-002,1.41000e+000,-1.78599e+000,1.41000e+000,-3.47138e-001,1.41000e+000,-9.42118e+001
9.50000e-002,9.03331e-003,1.42500e+000,-1.78575e+000,1.42500e+000,-3.49790e-001,1.42500e+000,-9.41972e+001
9.60000e-002,6.11743e-003,1.44000e+000,-1.78951e+000,1.44000e+000,-3.49348e-001,1.44000e+000,-9.41779e+001
9.70000e-002,2.87324e-003,1.45500e+000,-1.79087e+000,1.45500e+000,-3.46887e-001,1.45500e+000,-9.42049e+001
9.80000e-002,-3.80346e-004,1.47000e+000,-1.78960e+000,1.47000e+000,-3.50293e-001,1.47000e+000,-9.42330e+001
9.90000e-002,-3.79574e-003,1.48500e+000,-1.79079e+000,1.48500e+000,-3.54582e-001,1.48500e+000,-9.42129e+001
1.00000e-001,-7.65225e-003,1.50000e+000,-1.78851e+000,1.50000e+000,-3.56807e-001,1.50000e+000,-9.41699e+001
1.01000e-001,-1.07702e-002,1.51500e+000,-1.79006e+000,1.51500e+000,-3.59000e-001,1.51500e+000,-9.42003e+001
1.02000e-001,-1.09871e-002,1.53000e+000,-1.78568e+000,1.53000e+000,-3.58220e-001,1.53000e+000,-9.41995e+001
1.03000e-001,-1.06739e-002,1.54500e+000,-1.78922e+000,1.54500e+000,-3.57477e-001,1.54500e+000,-9.41998e+001
1.04000e-001,-8.30149e-003,1.56000e+000,-1.78840e+000,1.56000e+000,-3.59381e-001,1.56000e+000,-9.41841e+001
1.05000e-001,-4.26438e-003,1.57500e+000,-1.78762e+000,1.57500e+000,-3.53751e-001,1.57500e+000,-9.41935e+001
1.06000e-001,-4.19623e-004,1.59000e+000,-1.78778e+000,1.59000e+000,-3.57033e-001,1.59000e+000,-9.42130e+001
1.07000e-001,3.19753e-003,1.60500e+000,-1.78592e+000,1.60500e+000,-3.59776e-001,1.60500e+000,-9.42360e+001
1.08000e-001,6.75358e-003,1.62000e+000,-1.78653e+000,1.62000e+000,-3.55887e-001,1.62000e+000,-9.42748e+001
1.09000e-001,9.89706e-003,1.63500e+000,-1.78287e+000,1.63500e+000,-3.54205e-001,1.63500e+000,-9.42744e+001
1.10000e-001,1.07994e-002,1.65000e+000,-1.77955e+000,1.65000e+000,-3.53915e-001,1.65000e+000,-9.42837e+001
1.11000e-001,1.04050e-002,1.66500e+000,-1.78081e+000,1.66500e+000,-3.55415e-001,1.66500e+000,-9.42729e+001
1.12000e-001,8.42704e-003,1.68000e+000,-1.77993e+000,1.68000e+000,-3.60636e-001,1.68000e+000,-9.42700e+001
1.13000e-001,5.28826e-003,1.69500e+000,-1.78643e+000,1.69500e+000,-3.58572e-001,1.69500e+000,-9.42811e+001
1.14000e-001,2.00043e-003,1.71000e+000,-1.78636e+000,1.71000e+000,-3.58251e-001,1.71000e+000,-9.42751e+001
1.15000e-001,-1.36059e-003,1.72500e+000,-1.78301e+000,1.72500e+000,-3.56617e-001,1.72500e+000,-9.42609e+001
1.16000e-001,-4.89885e-003,1.74000e+000,-1.78347e+000,1.74000e+000,-3.59153e-001,1.74000e+000,-9.42411e+001
1.17000e-001,-8.96046e-003,1.75500e+000,-1.78295e+000,1.75500e+000,-3.66654e-001,1.75500e+000,-9.42384e+001
1.18000e-001,-1.09817e-002,1.77000e+000,-1.78698e+000,1.77000e+000,-3.64939e-001,1.77000e+000,-9.42316e+001
1.19000e-001,-1.09105e-002,1.78500e+000,-1.78453e+000,1.78500e+000,-3.66836e-001,1.78500e+000,-9.42616e+001
1.20000e-001,-1.02643e-002,1.80000e+000,-1.78530e+000,1.80000e+000,-3.70778e-001,1.80000e+000,-9.42572e+001
1.21000e-001,-7.04833e-003,1.81500e+000,-1.78441e+000,1.81500e+000,-3.67890e-001,1.81500e+000,-9.42467e+001
1.22000e-001,-2.99544e-003,1.83000e+000,-1.78131e+000,1.83000e+000,-3.68154e-001,1.83000e+000,-9.42286e+001
1.23000e-001,7.16716e-004,1.84500e+000,-1.78435e+000,1.84500e+000,-3.67047e-001,1.84500e+000,-9.42343e+001
1.24000e-001,4.30399e-003,1.86000e+000,-1.78152e+000,1.86000e+000,-3.67558e-001,1.86000e+000,-9.42288e+001
1.25000e-001,7.79559e-003,1.87500e+000,-1.77769e+000,1.87500e+000,-3.71172e-001,1.87500e+000,-9.41795e+001
1.26000e-001,1.03539e-002,1.89000e+000,-1.77504e+000,1.89000e+000,-3.74395e-001,1.89000e+000,-9.41731e+001
1.27000e-001,1.07279e-002,1.90500e+000,-1.76865e+000,1.90500e+000,-3.71075e-001,1.90500e+000,-9.42151e+001
1.28000e-001,9.78595e-003,1.92000e+000,-1.76890e+000,1.92000e+000,-3.74519e-001,1.92000e+000,-9.42200e+001
1.29000e-001,7.14400e-003,1.93500e+000,-1.76665e+000,1.93500e+000,-3.74560e-001,1.93500e+000,-9.42339e+001
1.30000e-001,3.95688e-003,1.95000e+000,-1.77066e+000,1.95000e+000,-3.68025e-001,1.95000e+000,-9.42366e+001
1.31000e-001,7.03288e-004,1.96500e+000,-1.76586e+000,1.96500e+000,-3.69584e-001,1.96500e+000,-9.42173e+001
1.32000e-001,-2.66310e-003,1.98000e+000,-1.77003e+000,1.98000e+000,-3.63365e-001,1.98000e+000,-9.41985e+001
1.33000e-001,-6.31751e-003,1.99500e+000,-1.76682e+000,1.99500e+000,-3.62657e-001,1.99500e+000,-9.41637e+001
1.34000e-001,-1.00924e-002,2.01000e+000,-1.76961e+000,2.01000e+000,-3.69627e-001,2.01000e+000,-9.41478e+001
1.35000e-001,-1.09857e-002,2.02500e+000,-1.76902e+000,2.02500e+000,-3.67025e-001,2.02500e+000,-9.41629e+001
1.36000e-001,-1.08102e-002,2.04000e+000,-1.76784e+000,2.04000e+000,-3.67303e-001,2.04000e+000,-9.41476e+001
1.37000e-001,-9.30019e-003,2.05500e+000,-1.77341e+000,2.05500e+000,-3.64476e-001,2.05500e+000,-9.41187e+001
1.38000e-001,-5.45779e-003,2.07000e+000,-1.77196e+000,2.07000e+000,-3.62912e-001,2.07000e+000,-9.40988e+001
1.39000e-001,-1.48244e-003,2.08500e+000,-1.77254e+000,2.08500e+000,-3.62967e-001,2.08500e+000,-9.41241e+001
1.40000e-001,2.15216e-003,2.10000e+000,-1.76877e+000,2.10000e+000,-3.62027e-001,2.10000e+000,-9.41342e+001
1.41000e-001,5.72500e-003,2.11500e+000,-1.76495e+000,2.11500e+000,-3.65041e-001,2.11500e+000,-9.41396e+001
1.42000e-001,9.11321e-003,2.13000e+000,-1.76683e+000,2.13000e+000,-3.60979e-001,2.13000e+000,-9.41473e+001
1.43000e-001,1.07850e-002,2.14500e+000,-1.76535e+000,2.14500e+000,-3.64538e-001,2.14500e+000,-9.41572e+001
1.44000e-001,1.06051e-002,2.16000e+000,-1.76089e+000,2.16000e+000,-3.67659e-001,2.16000e+000,-9.42012e+001
1.45000e-001,9.28106e-003,2.17500e+000,-1.76448e+000,2.17500e+000,-3.68791e-001,2.17500e+000,-9.42196e+001
1.46000e-001,6.32254e-003,2.19000e+000,-1.76295e+000,2.19000e+000,-3.69432e-001,2.19000e+000,-9.42433e+001
1.47000e-001,3.06593e-003,2.20500e+000,-1.76371e+000,2.20500e+000,-3.71685e-001,2.20500e+000,-9.42477e+001
1.48000e-001,-2.14511e-004,2.22000e+000,-1.75745e+000,2.22000e+000,-3.69369e-001,2.22000e+000,-9.42476e+001
1.49000e-001,-3.65374e-003,2.23500e+000,-1.75469e+000,2.23500e+000,-3.68014e-001,2.23500e+000,-9.42305e+001
1.50000e-001,-7.56832e-003,2.25000e+000,-1.75700e+000,2.25000e+000,-3.65911e-001,2.25000e+000,-9.42309e+001
1.51000e-001,-1.07303e-002,2.26500e+000,-1.76061e+000,2.26500e+000,-3.66688e-001,2.26500e+000,-9.42262e+001
1.52000e-001,-1.09867e-002,2.28000e+000,-1.76298e+000,2.28000e+000,-3.65306e-001,2.28000e+000,-9.42025e+001
1.53000e-001,-1.06460e-002,2.29500e+000,-1.75699e+000,2.29500e+000,-3.66473e-001,2.29500e+000,-9.42025e+001
1.54000e-001,-8.16889e-003,2.31000e+000,-1.75626e+000,2.31000e+000,-3.65691e-001,2.31000e+000,-9.42151e+001
1.55000e-001,-4.18985e-003,2.32500e+000,-1.75355e+000,2.32500e+000,-3.71552e-001,2.32500e+000,-9.42136e+001
1.56000e-001,-4.22980e-004,2.34000e+000,-1.75548e+000,2.34000e+000,-3.69773e-001,2.34000e+000,-9.42164e+001
1.57000e-001,3.15926e-003,2.35500e+000,-1.75037e+000,2.35500e+000,-3.67174e-001,2.35500e+000,-9.42031e+001
1.58000e-001,6.69148e-003,2.37000e+000,-1.75227e+000,2.37000e+000,-3.74880e-001,2.37000e+000,-9.41988e+001
1.59000e-001,9.77252e-003,2.38500e+000,-1.75685e+000,2.38500e+000,-3.69897e-001,2.38500e+000,-9.42229e+001
1.60000e-001,1.07742e-002,2.40000e+000,-1.75839e+000,2.40000e+000,-3.72059e-001,2.40000e+000,-9.42266e+001
1.61000e-001,1.02492e-002,2.41500e+000,-1.75964e+000,2.41500e+000,-3.73763e-001,2.41500e+000,-9.42055e+001
1.62000e-001,8.03763e-003,2.43000e+000,-1.76097e+000,2.43000e+000,-3.70018e-001,2.43000e+000,-9.42046e+001
1.63000e-001,4.89952e-003,2.44500e+000,-1.76154e+000,2.44500e+000,-3.67483e-001,2.44500e+000,-9.41898e+001
1.64000e-001,1.61773e-003,2.46000e+000,-1.75672e+000,2.46000e+000,-3.57553e-001,2.46000e+000,-9.41927e+001
1.65000e-001,-1.69259e-003,2.47500e+000,-1.75100e+000,2.47500e+000,-3.64830e-001,2.47500e+000,-9.42201e+001
1.66000e-001,-5.18083e-003,2.49000e+000,-1.75544e+000,2.49000e+000,-3.55439e-001,2.49000e+000,-9.42435e+001
1.67000e-001,-9.17598e-003,2.50500e+000,-1.75562e+000,2.50500e+000,-3.59226e-001,2.50500e+000,-9.42434e+001
1.68000e-001,-1.09824e-002,2.52000e+000,-1.77128e+000,2.52000e+000,-3.55053e-001,2.52000e+000,-9.42372e+001
1.69000e-001,-1.08793e-002,2.53500e+000,-1.76576e+000,2.53500e+000,-3.53621e-001,2.53500e+000,-9.42396e+001
1.70000e-001,-1.01505e-002,2.55000e+000,-1.75925e+000,2.55000e+000,-3.51834e-001,2.55000e+000,-9.42523e+001
1.71000e-001,-6.81569e-003,2.56500e+000,-1.76265e+000,2.56500e+000,-3.45187e-001,2.56500e+000,-9.42656e+001
1.72000e-001,-2.79368e-003,2.58000e+000,-1.75819e+000,2.58000e+000,-3.47066e-001,2.58000e+000,-9.42546e+001
1.73000e-001,9.05043e-004,2.59500e+000,-1.77461e+000,2.59500e+000,-3.63817e-001,2.59500e+000,-9.42350e+001
1.74000e-001,4.51145e-003,2.61000e+000,-1.77861e+000,2.61000e+000,-3.65547e-001,2.61000e+000,-9.42212e+001
1.75000e-001,8.07791e-003,2.62500e+000,-1.76994e+000,2.62500e+000,-3.66555e-001,2.62500e+000,-9.42246e+001
1.76000e-001,1.05534e-002,2.64000e+000,-1.77516e+000,2.64000e+000,-3.64642e-001,2.64000e+000,-9.42254e+001
1.77000e-001,1.07199e-002,2.65500e+000,-1.77029e+000,2.65500e+000,-3.67817e-001,2.65500e+000,-9.42096e+001
1.78000e-001,9.91485e-003,2.67000e+000,-1.79946e+000,2.67000e+000,-3.79390e-001,2.67000e+000,-9.41739e+001
1.79000e-001,7.29741e-003,2.68500e+000,-1.80546e+000,2.68500e+000,-3.87917e-001,2.68500e+000,-9.41717e+001
1.80000e-001,4.06430e-003,2.70000e+000,-1.77363e+000,2.70000e+000,-3.64337e-001,2.70000e+000,-9.41441e+001
1.81000e-001,7.83185e-004,2.71500e+000,-1.76622e+000,2.71500e+000,-3.57677e-001,2.71500e+000,-9.41250e+001
1.82000e-001,-2.62416e-003,2.73000e+000,-1.78368e+000,2.73000e+000,-3.73663e-001,2.73000e+000,-9.41220e+001
1.83000e-001,-6.26883e-003,2.74500e+000,-1.80565e+000,2.74500e+000,-3.81329e-001,2.74500e+000,-9.41194e+001
1.84000e-001,-1.00035e-002,2.76000e+000,-1.79487e+000,2.76000e+000,-3.74036e-001,2.76000e+000,-9.41191e+001
1.85000e-001,-1.09857e-002,2.77500e+000,-1.78709e+000,2.77500e+000,-3.60526e-001,2.77500e+000,-9.41601e+001
1.86000e-001,-1.08024e-002,2.79000e+000,-1.79051e+000,2.79000e+000,-3.56771e-001,2.79000e+000,-9.41815e+001
1.87000e-001,-9.04808e-003,2.80500e+000,-1.80070e+000,2.80500e+000,-3.63981e-001,2.80500e+000,-9.42227e+001
1.88000e-001,-5.19594e-003,2.82000e+000,-1.81420e+000,2.82000e+000,-3.75705e-001,2.82000e+000,-9.41930e+001
1.89000e-001,-1.30150e-003,2.83500e+000,-1.80380e+000,2.83500e+000,-3.62046e-001,2.83500e+000,-9.41968e+001
1.90000e-001,2.29651e-003,2.85000e+000,-1.78375e+000,2.85000e+000,-3.41527e-001,2.85000e+000,-9.42165e+001
1.91000e-001,5.83410e-003,2.86500e+000,-1.77957e+000,2.86500e+000,-3.40318e-001,2.86500e+000,-9.42221e+001
1.92000e-001,9.21257e-003,2.88000e+000,-1.78255e+000,2.88000e+000,-3.48011e-001,2.88000e+000,-9.42226e+001
1.93000e-001,1.07655e-002,2.89500e+000,-1.80017e+000,2.89500e+000,-3.64021e-001,2.89500e+000,-9.42186e+001
1.94000e-001,1.05540e-002,2.91000e+000,-1.79383e+000,2.91000e+000,-3.59405e-001,2.91000e+000,-9.42249e+001
1.95000e-001,9.02995e-003,2.92500e+000,-1.76369e+000,2.92500e+000,-3.31535e-001,2.92500e+000,-9.42272e+001
1.96000e-001,5.99121e-003,2.94000e+000,-1.78704e+000,2.94000e+000,-3.45188e-001,2.94000e+000,-9.42456e+001
1.97000e-001,2.67955e-003,2.95500e+000,-1.80332e+000,2.95500e+000,-3.57858e-001,2.95500e+000,-9.42459e+001
1.98000e-001,-6.16678e-004,2.97000e+000,-1.78883e+000,2.97000e+000,-3.44591e-001,2.97000e+000,-9.42402e+001
1.99000e-001,-4.06934e-003,2.98500e+000,-1.78399e+000,2.98500e+000,-3.41008e-001,2.98500e+000,-9.42234e+001
2.00000e-001,-7.99936e-003,3.00000e+000,-1.78871e+000,3.00000e+000,-3.39972e-001,3.00000e+000,-9.42173e+001
2.01000e-001,-1.09112e-002,3.01500e+000,-1.78895e+000,3.01500e+000,-3.46408e-001,3.01500e+000,-9.42341e+001
2.02000e-001,-1.09871e-002,3.03000e+000,-1.79835e+000,3.03000e+000,-3.60435e-001,3.03000e+000,-9.42686e+001
2.03000e-001,-1.06463e-002,3.04500e+000,-1.80360e+000,3.04500e+000,-3.62094e-001,3.04500e+000,-9.42992e+001
2.04000e-001,-8.13465e-003,3.06000e+000,-1.79164e+000,3.06000e+000,-3.54362e-001,3.06000e+000,-9.43344e+001
2.05000e-001,-4.08377e-003,3.07500e+000,-1.79331e+000,3.07500e+000,-3.50491e-001,3.07500e+000,-9.43484e+001
2.06000e-001,-2.65537e-004,3.09000e+000,-1.78770e+000,3.09000e+000,-3.53844e-001,3.09000e+000,-9.43621e+001
2.07000e-001,3.36202e-003,3.10500e+000,-1.79298e+000,3.10500e+000,-3.55383e-001,3.10500e+000,-9.43658e+001
2.08000e-001,6.91640e-003,3.12000e+000,-1.81505e+000,3.12000e+000,-3.68964e-001,3.12000e+000,-9.43809e+001
2.09000e-001,9.96185e-003,3.13500e+000,-1.80596e+000,3.13500e+000,-3.60717e-001,3.13500e+000,-9.43685e+001
2.10000e-001,1.07870e-002,3.15000e+000,-1.79885e+000,3.15000e+000,-3.54735e-001,3.15000e+000,-9.43481e+001
2.11000e-001,1.03200e-002,3.16500e+000,-1.79732e+000,3.16500e+000,-3.58652e-001,3.16500e+000,-9.43377e+001
2.12000e-001,8.15244e-003,3.18000e+000,-1.79931e+000,3.18000e+000,-3.51424e-001,3.18000e+000,-9.43181e+001
2.13000e-001,5.01030e-003,3.19500e+000,-1.81316e+000,3.19500e+000,-3.71170e-001,3.19500e+000,-9.43136e+001
2.14000e-001,1.75268e-003,3.21000e+000,-1.83087e+000,3.21000e+000,-3.78787e-001,3.21000e+000,-9.43476e+001
2.15000e-001,-1.59725e-003,3.22500e+000,-1.82334e+000,3.22500e+000,-3.75380e-001,3.22500e+000,-9.43473e+001
2.16000e-001,-5.13585e-003,3.24000e+000,-1.82162e+000,3.24000e+000,-3.75187e-001,3.24000e+000,-9.43675e+001
2.17000e-001,-9.18404e-003,3.25500e+000,-1.82250e+000,3.25500e+000,-3.73909e-001,3.25500e+000,-9.43649e+001
2.18000e-001,-1.09830e-002,3.27000e+000,-1.82805e+000,3.27000e+000,-3.84209e-001,3.27000e+000,-9.43602e+001
2.19000e-001,-1.08914e-002,3.28500e+000,-1.83101e+000,3.28500e+000,-3.86780e-001,3.28500e+000,-9.43600e+001
2.20000e-001,-1.00790e-002,3.30000e+000,-1.82527e+000,3.30000e+000,-3.83079e-001,3.30000e+000,-9.43562e+001
2.21000e-001,-6.69349e-003,3.31500e+000,-1.82058e+000,3.31500e+000,-3.87837e-001,3.31500e+000,-9.43743e+001
2.22000e-001,-2.68492e-003,3.33000e+000,-1.82074e+000,3.33000e+000,-3.84875e-001,3.33000e+000,-9.43982e+001
2.23000e-001,9.75204e-004,3.34500e+000,-1.81389e+000,3.34500e+000,-3.88156e-001,3.34500e+000,-9.44136e+001
2.24000e-001,4.55845e-003,3.36000e+000,-1.81051e+000,3.36000e+000,-3.86053e-001,3.36000e+000,-9.44311e+001
2.25000e-001,8.04166e-003,3.37500e+000,-1.82155e+000,3.37500e+000,-3.90184e-001,3.37500e+000,-9.44212e+001
2.26000e-001,1.04614e-002,3.39000e+000,-1.81310e+000,3.39000e+000,-3.83823e-001,3.39000e+000,-9.44088e+001
2.27000e-001,1.07064e-002,3.40500e+000,-1.81544e+000,3.40500e+000,-3.83193e-001,3.40500e+000,-9.44278e+001
2.28000e-001,9.66510e-003,3.42000e+000,-1.81307e+000,3.42000e+000,-3.79569e-001,3.42000e+000,-9.44208e+001
2.29000e-001,6.97011e-003,3.43500e+000,-1.81401e+000,3.43500e+000,-3.78671e-001,3.43500e+000,-9.43972e+001
2.30000e-001,3.73532e-003,3.45000e+000,-1.81120e+000,3.45000e+000,-3.85974e-001,3.45000e+000,-9.43970e+001
2.31000e-001,4.55543e-004,3.46500e+000,-1.78822e+000,3.46500e+000,-3.66074e-001,3.46500e+000,-9.44034e+001
2.32000e-001,-2.95079e-003,3.48000e+000,-1.80000e+000,3.48000e+000,-3.63608e-001,3.48000e+000,-9.44021e+001
2.33000e-001,-6.64515e-003,3.49500e+000,-1.79178e+000,3.49500e+000,-3.55719e-001,3.49500e+000,-9.44014e+001
2.34000e-001,-1.03059e-002,3.51000e+000,-1.80549e+000,3.51000e+000,-3.63779e-001,3.51000e+000,-9.44308e+001
2.35000e-001,-1.09864e-002,3.52500e+000,-1.82179e+000,3.52500e+000,-3.69274e-001,3.52500e+000,-9.44288e+001
2.36000e-001,-1.07910e-002,3.54000e+000,-1.80925e+000,3.54000e+000,-3.54400e-001,3.54000e+000,-9.44600e+001
2.37000e-001,-9.13805e-003,3.55500e+000,-1.79620e+000,3.55500e+000,-3.49079e-001,3.55500e+000,-9.45066e+001
2.38000e-001,-5.24294e-003,3.57000e+000,-1.77903e+000,3.57000e+000,-3.50887e-001,3.57000e+000,-9.45210e+001
2.39000e-001,-1.32164e-003,3.58500e+000,-1.78209e+000,3.58500e+000,-3.51135e-001,3.58500e+000,-9.44770e+001
2.40000e-001,2.29718e-003,3.60000e+000,-1.75663e+000,3.60000e+000,-3.35723e-001,3.60000e+000,-9.44501e+001
2.41000e-001,5.85794e-003,3.61500e+000,-1.78794e+000,3.61500e+000,-3.29409e-001,3.61500e+000,-9.44409e+001
2.42000e-001,9.23540e-003,3.63000e+000,-1.79017e+000,3.63000e+000,-3.24080e-001,3.63000e+000,-9.44407e+001
2.43000e-001,1.07904e-002,3.64500e+000,-1.78203e+000,3.64500e+000,-3.23841e-001,3.64500e+000,-9.44537e+001
2.44000e-001,1.05802e-002,3.66000e+000,-1.76931e+000,3.66000e+000,-3.29573e-001,3.66000e+000,-9.43978e+001
2.45000e-001,9.05882e-003,3.67500e+000,-1.74808e+000,3.67500e+000,-3.34080e-001,3.67500e+000,-9.42292e+001
2.46000e-001,6.05231e-003,3.69000e+000,-1.72158e+000,3.69000e+000,-3.20427e-001,3.69000e+000,-9.40539e+001
2.47000e-001,2.79771e-003,3.70500e+000,-1.72436e+000,3.70500e+000,-3.27635e-001,3.70500e+000,-9.38184e+001
2.48000e-001,-4.74342e-004,3.72000e+000,-1.71573e+000,3.72000e+000,-3.18054e-001,3.72000e+000,-9.34582e+001
2.49000e-001,-3.92566e-003,3.73500e+000,-1.71526e+000,3.73500e+000,-3.09458e-001,3.73500e+000,-9.32546e+001
2.50000e-001,-7.86172e-003,3.75000e+000,-1.71660e+000,3.75000e+000,-2.91017e-001,3.75000e+000,-9.29376e+001
2.51000e-001,-1.07984e-002,3.76500e+000,-1.71346e+000,3.76500e+000,-2.68672e-001,3.76500e+000,-9.26902e+001
2.52000e-001,-1.09867e-002,3.78000e+000,-1.71720e+000,3.78000e+000,-2.33590e-001,3.78000e+000,-9.21785e+001
2.53000e-001,-1.04919e-002,3.79500e+000,-1.73267e+000,3.79500e+000,-2.02522e-001,3.79500e+000,-9.09867e+001
2.54000e-001,-7.68078e-003,3.81000e+000,-1.73748e+000,3.81000e+000,-1.61142e-001,3.81000e+000,-8.97756e+001
2.55000e-001,-3.65274e-003,3.82500e+000,-1.75817e+000,3.82500e+000,-9.85731e-002,3.82500e+000,-8.81826e+001
2.56000e-001,1.11452e-004,3.84000e+000,-1.76613e+000,3.84000e+000,-6.37606e-002,3.84000e+000,-8.72321e+001
2.57000e-001,3.66683e-003,3.85500e+000,-1.75979e+000,3.85500e+000,-2.11249e-002,3.85500e+000,-8.64490e+001
2.58000e-001,7.13326e-003,3.87000e+000,-1.75929e+000,3.87000e+000,2.16337e-003,3.87000e+000,-8.60056e+001
2.59000e-001,1.00545e-002,3.88500e+000,-1.75185e+000,3.88500e+000,5.49593e-002,3.88500e+000,-8.54094e+001
2.60000e-001,1.07615e-002,3.90000e+000,-1.76067e+000,3.90000e+000,1.07159e-001,3.90000e+000,-8.40958e+001
2.61000e-001,1.02250e-002,3.91500e+000,-1.71685e+000,3.91500e+000,1.52951e-001,3.91500e+000,-8.26436e+001
2.62000e-001,7.94498e-003,3.93000e+000,-1.70217e+000,3.93000e+000,2.83356e-001,3.93000e+000,-8.02142e+001
2.63000e-001,4.73167e-003,3.94500e+000,-1.67192e+000,3.94500e+000,3.16843e-001,3.94500e+000,-7.84289e+001
2.64000e-001,1.42705e-003,3.96000e+000,-1.63772e+000,3.96000e+000,3.50136e-001,3.96000e+000,-7.72056e+001
2.65000e-001,-1.95276e-003,3.97500e+000,-1.63371e+000,3.97500e+000,4.18204e-001,3.97500e+000,-7.64036e+001
2.66000e-001,-5.49035e-003,3.99000e+000,-1.62332e+000,3.99000e+000,4.38642e-001,3.99000e+000,-7.60765e+001
2.67000e-001,-9.49288e-003,4.00500e+000,-1.61656e+000,4.00500e+000,4.68048e-001,4.00500e+000,-7.56714e+001
2.68000e-001,-1.09844e-002,4.02000e+000,-1.62193e+000,4.02000e+000,5.22326e-001,4.02000e+000,-7.51497e+001
2.69000e-001,-1.08770e-002,4.03500e+000,-1.59557e+000,4.03500e+000,5.58969e-001,4.03500e+000,-7.43459e+001
2.70000e-001,-1.00992e-002,4.05000e+000,-1.56609e+000,4.05000e+000,6.40311e-001,4.05000e+000,-7.27043e+001
2.71000e-001,-6.67536e-003,4.06500e+000,-1.51334e+000,4.06500e+000,6.90306e-001,4.06500e+000,-7.11571e+001
2.72000e-001,-2.64900e-003,4.08000e+000,-1.45142e+000,4.08000e+000,7.76047e-001,4.08000e+000,-6.91891e+001
2.73000e-001,1.03429e-003,4.09500e+000,-1.44021e+000,4.09500e+000,8.51902e-001,4.09500e+000,-6.80226e+001
2.74000e-001,4.61048e-003,4.11000e+000,-1.38815e+000,4.11000e+000,9.31861e-001,4.11000e+000,-6.67237e+001
2.75000e-001,8.11417e-003,4.12500e+000,-1.38534e+000,4.12500e+000,9.98264e-001,4.12500e+000,-6.59942e+001
2.76000e-001,1.05053e-002,4.14000e+000,-1.39015e+000,4.14000e+000,1.00469e+000,4.14000e+000,-6.53058e+001
2.77000e-001,1.07098e-002,4.15500e+000,-1.38300e+000,4.15500e+000,1.02548e+000,4.15500e+000,-6.41903e+001
2.78000e-001,9.65570e-003,4.17000e+000,-1.35169e+000,4.17000e+000,1.09303e+000,4.17000e+000,-6.30824e+001
2.79000e-001,6.91841e-003,4.18500e+000,-1.26029e+000,4.18500e+000,1.21759e+000,4.18500e+000,-6.04981e+001
2.80000e-001,3.69738e-003,4.20000e+000,-1.10299e+000,4.20000e+000,1.38884e+000,4.20000e+000,-5.78332e+001
2.81000e-001,4.50172e-004,4.21500e+000,-8.87788e-001,4.21500e+000,1.53987e+000,4.21500e+000,-5.48968e+001
2.82000e-001,-2.94173e-003,4.23000e+000,-7.05867e-001,4.23000e+000,1.63480e+000,4.23000e+000,-5.05086e+001
2.83000e-001,-6.67704e-003,4.24500e+000,-6.77937e-001,4.24500e+000,1.70649e+000,4.24500e+000,-4.63499e+001
2.84000e-001,-1.02828e-002,4.26000e+000,-3.65881e-001,4.26000e+000,1.95379e+000,4.26000e+000,-4.02204e+001
2.85000e-001,-1.09864e-002,4.27500e+000,-4.19021e-001,4.27500e+000,1.78604e+000,4.27500e+000,-3.59034e+001
2.86000e-001,-1.07648e-002,4.29000e+000,-5.05478e-001,4.29000e+000,1.68939e+000,4.29000e+000,-3.45469e+001
2.87000e-001,-8.90138e-003,4.30500e+000,-4.98752e-001,4.30500e+000,1.72237e+000,4.30500e+000,-3.44231e+001
2.88000e-001,-4.97169e-003,4.32000e+000,-4.73623e-001,4.32000e+000,1.76155e+000,4.32000e+000,-3.39591e+001
2.89000e-001,-1.07659e-003,4.33500e+000,-4.26180e-001,4.33500e+000,1.75807e+000,4.33500e+000,-3.30778e+001
2.90000e-001,2.51807e-003,4.35000e+000,-3.79040e-001,4.35000e+000,1.74844e+000,4.35000e+000,-3.24810e+001
2.91000e-001,6.09293e-003,4.36500e+000,-3.32858e-001,4.36500e+000,1.74713e+000,4.36500e+000,-3.17026e+001
2.92000e-001,9.43951e-003,4.38000e+000,-2.99681e-001,4.38000e+000,1.77863e+000,4.38000e+000,-3.11116e+001
2.93000e-001,1.08078e-002,4.39500e+000,-3.17421e-001,4.39500e+000,1.79663e+000,4.39500e+000,-3.04739e+001
2.94000e-001,1.05634e-002,4.41000e+000,-2.87779e-001,4.41000e+000,1.82825e+000,4.41000e+000,-2.94619e+001
2.95000e-001,9.07024e-003,4.42500e+000,-3.02507e-001,4.42500e+000,1.82018e+000,4.42500e+000,-2.85589e+001
2.96000e-001,6.00195e-003,4.44000e+000,-3.58326e-001,4.44000e+000,1.83100e+000,4.44000e+000,-2.72090e+001
2.97000e-001,2.72151e-003,4.45500e+000,-4.73227e-001,4.45500e+000,1.80881e+000,4.45500e+000,-2.61297e+001
2.98000e-001,-5.91165e-004,4.47000e+000,-5.56775e-001,4.47000e+000,1.83359e+000,4.47000e+000,-2.46550e+001
2.99000e-001,-4.05859e-003,4.48500e+000,-5.51582e-001,4.48500e+000,1.82957e+000,4.48500e+000,-2.34120e+001
3.00000e-001,-8.02118e-003,4.50000e+000,-5.03163e-001,4.50000e+000,1.86314e+000,4.50000e+000,-2.22186e+001
3.01000e-001,-1.08736e-002,4.51500e+000,-3.43667e-001,4.51500e+000,1.81824e+000,4.51500e+000,-2.08943e+001
3.02000e-001,-1.09874e-002,4.53000e+000,-1.86974e-001,4.53000e+000,1.84566e+000,4.53000e+000,-2.00963e+001
3.03000e-001,-1.04882e-002,4.54500e+000,8.00328e-004,4.54500e+000,1.86138e+000,4.54500e+000,-1.90584e+001
3.04000e-001,-7.63311e-003,4.56000e+000,1.74075e-001,4.56000e+000,1.86861e+000,4.56000e+000,-1.82578e+001
3.05000e-001,-3.62051e-003,4.57500e+000,2.65249e-001,4.57500e+000,1.87028e+000,4.57500e+000,-1.72960e+001
3.06000e-001,1.22866e-004,4.59000e+000,3.26338e-001,4.59000e+000,1.89331e+000,4.59000e+000,-1.55991e+001
3.07000e-001,3.71182e-003,4.60500e+000,3.79930e-001,4.60500e+000,1.85435e+000,4.60500e+000,-1.41512e+001
3.08000e-001,7.25344e-003,4.62000e+000,4.51321e-001,4.62000e+000,1.83224e+000,4.62000e+000,-1.24246e+001
3.09000e-001,1.01163e-002,4.63500e+000,5.02825e-001,4.63500e+000,1.81357e+000,4.63500e+000,-1.12691e+001
3.10000e-001,1.07457e-002,4.65000e+000,5.78012e-001,4.65000e+000,1.82774e+000,4.65000e+000,-1.01274e+001
3.11000e-001,1.01807e-002,4.66500e+000,7.45599e-001,4.66500e+000,1.84736e+000,4.66500e+000,-8.43511e+000
3.12000e-001,7.84762e-003,4.68000e+000,1.02864e+000,4.68000e+000,1.87408e+000,4.68000e+000,-6.90854e+000
3.13000e-001,4.63163e-003,4.69500e+000,1.46968e+000,4.69500e+000,1.87149e+000,4.69500e+000,-4.44279e+000
3.14000e-001,1.33037e-003,4.71000e+000,1.93349e+000,4.71000e+000,1.86254e+000,4.71000e+000,-2.47134e+000
3.15000e-001,-2.03232e-003,4.72500e+000,2.44286e+000,4.72500e+000,1.76152e+000,4.72500e+000,-6.95683e-002
3.16000e-001,-5.58904e-003,4.74000e+000,2.88695e+000,4.74000e+000,1.71007e+000,4.74000e+000,1.40138e+000
3.17000e-001,-9.56338e-003,4.75500e+000,3.20621e+000,4.75500e+000,1.64263e+000,4.75500e+000,2.50036e+000
3.18000e-001,-1.09844e-002,4.77000e+000,3.49405e+000,4.77000e+000,1.55842e+000,4.77000e+000,3.54476e+000
3.19000e-001,-1.08803e-002,4.78500e+000,3.63956e+000,4.78500e+000,1.49759e+000,4.78500e+000,4.04619e+000
3.20000e-001,-9.97159e-003,4.80000e+000,3.63711e+000,4.80000e+000,1.44928e+000,4.80000e+000,4.21513e+000
3.21000e-001,-6.43500e-003,4.81500e+000,3.08181e+000,4.81500e+000,1.44027e+000,4.81500e+000,3.92958e+000
3.22000e-001,-2.42206e-003,4.83000e+000,8.01886e-001,4.83000e+000,6.21060e-001,4.83000e+000,3.42984e+000
3.23000e-001,1.26021e-003,4.84500e+000,1.12991e+000,4.84500e+000,5.37168e-001,4.84500e+000,2.95582e+000
3.24000e-001,4.84178e-003,4.86000e+000,7.14904e-001,4.86000e+000,7.37731e-001,4.86000e+000,2.38898e+000
3.25000e-001,8.34781e-003,4.87500e+000,8.25936e-001,4.87500e+000,9.58851e-001,4.87500e+000,1.59224e+000
3.26000e-001,1.05832e-002,4.89000e+000,8.55893e-001,4.89000e+000,1.00947e+000,4.89000e+000,1.29918e+000
3.27000e-001,1.06722e-002,4.90500e+000,8.61730e-001,4.90500e+000,1.00555e+000,4.90500e+000,1.02964e+000
3.28000e-001,9.58721e-003,4.92000e+000,8.41692e-001,4.92000e+000,9.89094e-001,4.92000e+000,8.32620e-001
3.29000e-001,6.78279e-003,4.93500e+000,8.44926e-001,4.93500e+000,9.84115e-001,4.93500e+000,6.56679e-001
3.30000e-001,3.53256e-003,4.95000e+000,8.29131e-001,4.95000e+000,9.68608e-001,4.95000e+000,3.68930e-001
3.31000e-001,2.31296e-004,4.96500e+000,8.38049e-001,4.96500e+000,9.78845e-001,4.96500e+000,1.78871e-001
3.32000e-001,-3.18779e-003,4.98000e+000,8.20781e-001,4.98000e+000,9.63387e-001,4.98000e+000,-5.14298e-002
3.33000e-001,-6.92949e-003,4.99500e+000,8.15021e-001,4.99500e+000,9.66317e-001,4.99500e+000,-2.46468e-001
3.34000e-001,-1.04584e-002,5.01000e+000,8.12282e-001,5.01000e+000,9.70045e-001,5.01000e+000,-4.52075e-001
3.35000e-001,-1.09864e-002,5.02500e+000,8.09675e-001,5.02500e+000,9.66919e-001,5.02500e+000,-7.48071e-001
3.36000e-001,-1.07789e-002,5.04000e+000,8.09826e-001,5.04000e+000,9.68845e-001,5.04000e+000,-9.70447e-001
3.37000e-001,-8.94200e-003,5.05500e+000,8.03802e-001,5.05500e+000,9.70019e-001,5.05500e+000,-1.21667e+000
3.38000e-001,-4.98949e-003,5.07000e+000,8.00203e-001,5.07000e+000,9.68623e-001,5.07000e+000,-1.42973e+000
3.39000e-001,-1.10210e-003,5.08500e+000,7.90702e-001,5.08500e+000,9.67827e-001,5.08500e+000,-1.63572e+000
3.40000e-001,2.49693e-003,5.10000e+000,7.92193e-001,5.10000e+000,9.70269e-001,5.10000e+000,-1.93378e+000
3.41000e-001,6.05768e-003,5.11500e+000,7.95353e-001,5.11500e+000,9.70745e-001,5.11500e+000,-2.17236e+000
3.42000e-001,9.36834e-003,5.13000e+000,7.90102e-001,5.13000e+000,9.70895e-001,5.13000e+000,-2.48397e+000
3.43000e-001,1.07877e-002,5.14500e+000,7.85576e-001,5.14500e+000,9.72956e-001,5.14500e+000,-2.74232e+000
3.44000e-001,1.05268e-002,5.16000e+000,7.87311e-001,5.16000e+000,9.66880e-001,5.16000e+000,-3.00551e+000
3.45000e-001,8.82719e-003,5.17500e+000,7.85332e-001,5.17500e+000,9.65475e-001,5.17500e+000,-3.19350e+000
3.46000e-001,5.76361e-003,5.19000e+000,7.83276e-001,5.19000e+000,9.66636e-001,5.19000e+000,-3.40758e+000
3.47000e-001,2.49558e-003,5.20500e+000,7.71337e-001,5.20500e+000,9.63565e-001,5.20500e+000,-3.74265e+000
3.48000e-001,-7.98627e-004,5.22000e+000,7.61369e-001,5.22000e+000,9.60663e-001,5.22000e+000,-3.99121e+000
3.49000e-001,-4.25934e-003,5.23500e+000,7.52135e-001,5.23500e+000,9.60494e-001,5.23500e+000,-4.30186e+000
3.50000e-001,-8.22663e-003,5.25000e+000,7.50720e-001,5.25000e+000,9.58473e-001,5.25000e+000,-4.54815e+000
3.51000e-001,-1.09243e-002,5.26500e+000,7.24855e-001,5.26500e+000,8.87692e-001,5.26500e+000,-4.92729e+000
3.52000e-001,-1.09535e-002,5.28000e+000,6.58515e-001,5.28000e+000,8.16535e-001,5.28000e+000,-6.22633e+000
3.53000e-001,-1.04463e-002,5.29500e+000,6.52657e-001,5.29500e+000,8.11430e-001,5.29500e+000,-6.95993e+000
3.54000e-001,-7.53072e-003,5.31000e+000,7.06778e-001,5.31000e+000,8.18508e-001,5.31000e+000,-7.70665e+000
3.55000e-001,-3.51376e-003,5.32500e+000,7.08867e-001,5.32500e+000,8.37494e-001,5.32500e+000,-8.21030e+000
3.56000e-001,2.26596e-004,5.34000e+000,7.19729e-001,5.34000e+000,8.78385e-001,5.34000e+000,-8.69087e+000
3.57000e-001,3.79977e-003,5.35500e+000,7.32814e-001,5.35500e+000,9.41143e-001,5.35500e+000,-8.88124e+000
3.58000e-001,7.31453e-003,5.37000e+000,7.39492e-001,5.37000e+000,9.84116e-001,5.37000e+000,-8.83671e+000
3.59000e-001,1.01589e-002,5.38500e+000,7.88069e-001,5.38500e+000,1.03484e+000,5.38500e+000,-8.34442e+000
3.60000e-001,1.07635e-002,5.40000e+000,8.42596e-001,5.40000e+000,1.05817e+000,5.40000e+000,-7.31493e+000
3.61000e-001,1.01633e-002,5.41500e+000,9.08911e-001,5.41500e+000,1.15077e+000,5.41500e+000,-4.84058e+000
3.62000e-001,7.79055e-003,5.43000e+000,9.32103e-001,5.43000e+000,1.12105e+000,5.43000e+000,-2.59015e+000
3.63000e-001,4.59068e-003,5.44500e+000,1.00588e+000,5.44500e+000,1.12335e+000,5.44500e+000,-4.75047e-001
3.64000e-001,1.31661e-003,5.46000e+000,1.08287e+000,5.46000e+000,1.05669e+000,5.46000e+000,2.03528e+000
3.65000e-001,-2.03937e-003,5.47500e+000,1.14400e+000,5.47500e+000,1.01319e+000,5.47500e+000,3.62321e+000
3.66000e-001,-5.63134e-003,5.49000e+000,1.17487e+000,5.49000e+000,9.61928e-001,5.49000e+000,5.34988e+000
3.67000e-001,-9.59493e-003,5.50500e+000,1.22859e+000,5.50500e+000,9.37313e-001,5.50500e+000,6.61948e+000
3.68000e-001,-1.09847e-002,5.52000e+000,1.24534e+000,5.52000e+000,9.50391e-001,5.52000e+000,7.94516e+000
3.69000e-001,-1.08619e-002,5.53500e+000,1.30092e+000,5.53500e+000,9.01154e-001,5.53500e+000,1.00113e+001
3.70000e-001,-9.82489e-003,5.55000e+000,1.31943e+000,5.55000e+000,9.12073e-001,5.55000e+000,1.15207e+001
3.71000e-001,-6.21680e-003,5.56500e+000,1.39800e+000,5.56500e+000,8.79048e-001,5.56500e+000,1.37625e+001
3.72000e-001,-2.20520e-003,5.58000e+000,1.37712e+000,5.58000e+000,8.77838e-001,5.58000e+000,1.55451e+001
3.73000e-001,1.45425e-003,5.59500e+000,1.28635e+000,5.59500e+000,8.27266e-001,5.59500e+000,1.78496e+001
3.74000e-001,5.01097e-003,5.61000e+000,1.32359e+000,5.61000e+000,7.51883e-001,5.61000e+000,1.91759e+001
3.75000e-001,8.45927e-003,5.62500e+000,1.36811e+000,5.62500e+000,7.42786e-001,5.62500e+000,2.03791e+001
3.76000e-001,1.06205e-002,5.64000e+000,1.41120e+000,5.64000e+000,7.13516e-001,5.64000e+000,2.21560e+001
3.77000e-001,1.06682e-002,5.65500e+000,1.41640e+000,5.65500e+000,6.98200e-001,5.65500e+000,2.37033e+001
3.78000e-001,9.54626e-003,5.67000e+000,1.46606e+000,5.67000e+000,6.55115e-001,5.67000e+000,2.59784e+001
3.79000e-001,6.72807e-003,5.68500e+000,1.49758e+000,5.68500e+000,6.34050e-001,5.68500e+000,2.77398e+001
3.80000e-001,3.48556e-003,5.70000e+000,1.47960e+000,5.70000e+000,5.86435e-001,5.70000e+000,2.95238e+001
3.81000e-001,2.17197e-004,5.71500e+000,1.51795e+000,5.71500e+000,4.83196e-001,5.71500e+000,3.14957e+001
3.82000e-001,-3.20894e-003,5.73000e+000,1.51864e+000,5.73000e+000,4.48479e-001,5.73000e+000,3.27747e+001
3.83000e-001,-6.99495e-003,5.74500e+000,1.51355e+000,5.74500e+000,4.01887e-001,5.74500e+000,3.44994e+001
3.84000e-001,-1.04886e-002,5.76000e+000,1.47691e+000,5.76000e+000,3.36695e-001,5.76000e+000,3.57220e+001
3.85000e-001,-1.09861e-002,5.77500e+000,1.47686e+000,5.77500e+000,3.03385e-001,5.77500e+000,3.77073e+001
3.86000e-001,-1.07507e-002,5.79000e+000,1.49446e+000,5.79000e+000,2.89465e-001,5.79000e+000,3.93091e+001
3.87000e-001,-8.71272e-003,5.80500e+000,1.49869e+000,5.80500e+000,2.82348e-001,5.80500e+000,4.09388e+001
3.88000e-001,-4.76658e-003,5.82000e+000,1.50177e+000,5.82000e+000,2.33957e-001,5.82000e+000,4.31851e+001
3.89000e-001,-9.04036e-004,5.83500e+000,1.51228e+000,5.83500e+000,1.90246e-001,5.83500e+000,4.48042e+001
3.90000e-001,2.70137e-003,5.85000e+000,1.51530e+000,5.85000e+000,1.46686e-001,5.85000e+000,4.62404e+001
3.91000e-001,6.21881e-003,5.86500e+000,1.51980e+000,5.86500e+000,1.16839e-001,5.86500e+000,4.81580e+001
3.92000e-001,9.46334e-003,5.88000e+000,1.54462e+000,5.88000e+000,7.22920e-002,5.88000e+000,4.97288e+001
3.93000e-001,1.07820e-002,5.89500e+000,1.52291e+000,5.89500e+000,4.69977e-002,5.89500e+000,5.19179e+001
3.94000e-001,1.04829e-002,5.91000e+000,1.54473e+000,5.91000e+000,1.67506e-002,5.91000e+000,5.35799e+001
3.95000e-001,8.67814e-003,5.92500e+000,1.56096e+000,5.92500e+000,-4.07908e-002,5.92500e+000,5.58666e+001
3.96000e-001,5.61254e-003,5.94000e+000,1.54874e+000,5.94000e+000,-1.01924e-001,5.94000e+000,5.75149e+001
3.97000e-001,2.33545e-003,5.95500e+000,1.52935e+000,5.95500e+000,-1.45306e-001,5.95500e+000,5.90203e+001
3.98000e-001,-9.72519e-004,5.97000e+000,1.53465e+000,5.97000e+000,-2.07230e-001,5.97000e+000,6.07620e+001
3.99000e-001,-4.44800e-003,5.98500e+000,1.55610e+000,5.98500e+000,-2.32378e-001,5.98500e+000,6.21042e+001
4.00000e-001,-8.42133e-003,6.00000e+000,1.54601e+000,6.00000e+000,-1.65750e-001,6.00000e+000,6.41933e+001
4.01000e-001,-1.09595e-002,6.01500e+000,1.55382e+000,6.01500e+000,-1.86803e-001,6.01500e+000,6.59536e+001
4.02000e-001,-1.09444e-002,6.03000e+000,1.52955e+000,6.03000e+000,-2.36595e-001,6.03000e+000,6.80673e+001
4.03000e-001,-1.04251e-002,6.04500e+000,1.50418e+000,6.04500e+000,-2.66120e-001,6.04500e+000,6.93413e+001
4.04000e-001,-7.43471e-003,6.06000e+000,1.50415e+000,6.06000e+000,-2.80691e-001,6.06000e+000,7.01333e+001
4.05000e-001,-3.39324e-003,6.07500e+000,1.49894e+000,6.07500e+000,-2.88314e-001,6.07500e+000,7.11298e+001
4.06000e-001,3.09850e-004,6.09000e+000,1.49694e+000,6.09000e+000,-2.94697e-001,6.09000e+000,7.19243e+001
4.07000e-001,3.88370e-003,6.10500e+000,1.48861e+000,6.10500e+000,-3.05607e-001,6.10500e+000,7.30029e+001
4.08000e-001,7.40920e-003,6.12000e+000,1.48658e+000,6.12000e+000,-3.13266e-001,6.12000e+000,7.38065e+001
4.09000e-001,1.02089e-002,6.13500e+000,1.48019e+000,6.13500e+000,-3.11414e-001,6.13500e+000,7.46202e+001
4.10000e-001,1.07554e-002,6.15000e+000,1.47609e+000,6.15000e+000,-3.14732e-001,6.15000e+000,7.57528e+001
4.11000e-001,1.00911e-002,6.16500e+000,1.47265e+000,6.16500e+000,-3.22490e-001,6.16500e+000,7.66072e+001
4.12000e-001,7.66366e-003,6.18000e+000,1.46876e+000,6.18000e+000,-3.27977e-001,6.18000e+000,7.77705e+001
4.13000e-001,4.46647e-003,6.19500e+000,1.46962e+000,6.19500e+000,-3.33655e-001,6.19500e+000,7.86490e+001
4.14000e-001,1.17864e-003,6.21000e+000,1.46550e+000,6.21000e+000,-3.37145e-001,6.21000e+000,7.98544e+001
4.15000e-001,-2.21158e-003,6.22500e+000,1.46880e+000,6.22500e+000,-3.49416e-001,6.22500e+000,8.07650e+001
4.16000e-001,-5.75756e-003,6.24000e+000,1.46522e+000,6.24000e+000,-3.55946e-001,6.24000e+000,8.16747e+001
4.17000e-001,-9.67483e-003,6.25500e+000,1.46697e+000,6.25500e+000,-3.65567e-001,6.25500e+000,8.29400e+001
4.18000e-001,-1.09851e-002,6.27000e+000,1.46347e+000,6.27000e+000,-3.61617e-001,6.27000e+000,8.38818e+001
4.19000e-001,-1.08528e-002,6.28500e+000,1.45901e+000,6.28500e+000,-3.63094e-001,6.28500e+000,8.51807e+001
4.20000e-001,-9.70370e-003,6.30000e+000,1.45775e+000,6.30000e+000,-3.66826e-001,6.30000e+000,8.61821e+001
4.21000e-001,-6.04459e-003,6.31500e+000,1.45689e+000,6.31500e+000,-3.64400e-001,6.31500e+000,8.71581e+001
4.22000e-001,-2.04608e-003,6.33000e+000,1.44751e+000,6.33000e+000,-3.68706e-001,6.33000e+000,8.84838e+001
4.23000e-001,1.61035e-003,6.34500e+000,1.44541e+000,6.34500e+000,-3.73001e-001,6.34500e+000,8.94734e+001
4.24000e-001,5.18486e-003,6.36000e+000,1.44133e+000,6.36000e+000,-3.73359e-001,6.36000e+000,9.07833e+001
4.25000e-001,8.66606e-003,6.37500e+000,1.44031e+000,6.37500e+000,-3.80464e-001,6.37500e+000,9.17984e+001
4.26000e-001,1.06856e-002,6.39000e+000,1.43613e+000,6.39000e+000,-3.85993e-001,6.39000e+000,9.28220e+001
4.27000e-001,1.06473e-002,6.40500e+000,1.43204e+000,6.40500e+000,-3.92995e-001,6.40500e+000,9.42176e+001
4.28000e-001,9.48885e-003,6.42000e+000,1.42998e+000,6.42000e+000,-3.93105e-001,6.42000e+000,9.52579e+001
4.29000e-001,6.63240e-003,6.43500e+000,1.48801e+000,6.43500e+000,-4.35382e-001,6.43500e+000,9.66987e+001
4.30000e-001,3.35497e-003,6.45000e+000,1.56495e+000,6.45000e+000,-4.69521e-001,6.45000e+000,9.78701e+001
4.31000e-001,9.16457e-005,6.46500e+000,1.58485e+000,6.46500e+000,-6.12665e-001,6.46500e+000,1.00238e+002
4.32000e-001,-3.35900e-003,6.48000e+000,1.51001e+000,6.48000e+000,-7.96125e-001,6.48000e+000,1.02323e+002
4.33000e-001,-7.17656e-003,6.49500e+000,1.59626e+000,6.49500e+000,-9.03352e-001,6.49500e+000,1.04347e+002
4.34000e-001,-1.05805e-002,6.51000e+000,1.55079e+000,6.51000e+000,-9.08997e-001,6.51000e+000,1.06996e+002
4.35000e-001,-1.09867e-002,6.52500e+000,1.52800e+000,6.52500e+000,-9.48447e-001,6.52500e+000,1.09361e+002
4.36000e-001,-1.07440e-002,6.54000e+000,1.48400e+000,6.54000e+000,-1.01284e+000,6.54000e+000,1.12867e+002
4.37000e-001,-8.65766e-003,6.55500e+000,1.45938e+000,6.55500e+000,-1.04369e+000,6.55500e+000,1.15398e+002
4.38000e-001,-4.67561e-003,6.57000e+000,1.44694e+000,6.57000e+000,-1.06090e+000,6.57000e+000,1.17915e+002
4.39000e-001,-8.08026e-004,6.58500e+000,1.38632e+000,6.58500e+000,-1.09760e+000,6.58500e+000,1.20926e+002
4.40000e-001,2.80610e-003,6.60000e+000,1.38837e+000,6.60000e+000,-1.14781e+000,6.60000e+000,1.23171e+002
4.41000e-001,6.33362e-003,6.61500e+000,1.14472e+000,6.61500e+000,-1.21727e+000,6.61500e+000,1.26262e+002
4.42000e-001,9.58386e-003,6.63000e+000,9.35287e-001,6.63000e+000,-1.23547e+000,6.63000e+000,1.28715e+002
4.43000e-001,1.07927e-002,6.64500e+000,1.15976e+000,6.64500e+000,-1.24462e+000,6.64500e+000,1.32927e+002
4.44000e-001,1.04573e-002,6.66000e+000,1.30992e+000,6.66000e+000,-1.34551e+000,6.66000e+000,1.36278e+002
4.45000e-001,8.59287e-003,6.67500e+000,1.35417e+000,6.67500e+000,-1.35353e+000,6.67500e+000,1.38909e+002
4.46000e-001,5.49169e-003,6.69000e+000,1.33244e+000,6.69000e+000,-1.27254e+000,6.69000e+000,1.41824e+002
4.47000e-001,2.21091e-003,6.70500e+000,1.25767e+000,6.70500e+000,-1.28739e+000,6.70500e+000,1.44407e+002
4.48000e-001,-1.10076e-003,6.72000e+000,1.05814e+000,6.72000e+000,-1.28817e+000,6.72000e+000,1.48127e+002
4.49000e-001,-4.58665e-003,6.73500e+000,9.86014e-001,6.73500e+000,-1.29084e+000,6.73500e+000,1.51112e+002
4.50000e-001,-8.59992e-003,6.75000e+000,9.18674e-001,6.75000e+000,-1.38239e+000,6.75000e+000,1.54285e+002
4.51000e-001,-1.09723e-002,6.76500e+000,8.81893e-001,6.76500e+000,-1.38585e+000,6.76500e+000,1.58878e+002
4.52000e-001,-1.09300e-002,6.78000e+000,8.28805e-001,6.78000e+000,-1.40727e+000,6.78000e+000,1.62719e+002
4.53000e-001,-1.03969e-002,6.79500e+000,6.23076e-001,6.79500e+000,-1.38768e+000,6.79500e+000,1.67972e+002
4.54000e-001,-7.36254e-003,6.81000e+000,5.88912e-001,6.81000e+000,-1.52445e+000,6.81000e+000,1.71136e+002
4.55000e-001,-3.31872e-003,6.82500e+000,6.55986e-001,6.82500e+000,-1.66133e+000,6.82500e+000,1.74204e+002
4.56000e-001,4.25330e-004,6.84000e+000,8.75430e-001,6.84000e+000,-1.88112e+000,6.84000e+000,1.76241e+002
4.57000e-001,4.03510e-003,6.85500e+000,8.92903e-001,6.85500e+000,-1.97587e+000,6.85500e+000,1.78126e+002
4.58000e-001,7.58007e-003,6.87000e+000,8.50613e-001,6.87000e+000,-2.06109e+000,6.87000e+000,-1.79223e+002
4.59000e-001,1.03177e-002,6.88500e+000,8.72525e-001,6.88500e+000,-2.04852e+000,6.88500e+000,-1.77029e+002
4.60000e-001,1.07494e-002,6.90000e+000,8.54847e-001,6.90000e+000,-1.86800e+000,6.90000e+000,-1.73689e+002
4.61000e-001,1.00814e-002,6.91500e+000,8.46580e-001,6.91500e+000,-1.65885e+000,6.91500e+000,-1.70894e+002
4.62000e-001,7.62774e-003,6.93000e+000,8.09568e-001,6.93000e+000,-1.44329e+000,6.93000e+000,-1.67880e+002
4.63000e-001,4.43861e-003,6.94500e+000,7.57837e-001,6.94500e+000,-1.44724e+000,6.94500e+000,-1.63867e+002
4.64000e-001,1.16219e-003,6.96000e+000,7.70673e-001,6.96000e+000,-1.46525e+000,6.96000e+000,-1.60963e+002
4.65000e-001,-2.23273e-003,6.97500e+000,8.61967e-001,6.97500e+000,-1.50250e+000,6.97500e+000,-1.57299e+002
4.66000e-001,-5.82336e-003,6.99000e+000,7.38894e-001,6.99000e+000,-1.54229e+000,6.99000e+000,-1.54693e+002
4.67000e-001,-9.73559e-003,7.00500e+000,6.59606e-001,7.00500e+000,-1.57371e+000,7.00500e+000,-1.51725e+002
4.68000e-001,-1.09851e-002,7.02000e+000,5.83761e-001,7.02000e+000,-1.57646e+000,7.02000e+000,-1.47769e+002
4.69000e-001,-1.08521e-002,7.03500e+000,5.37829e-001,7.03500e+000,-1.55818e+000,7.03500e+000,-1.45030e+002
4.70000e-001,-9.64327e-003,7.05000e+000,4.86548e-001,7.05000e+000,-1.53826e+000,7.05000e+000,-1.41884e+002
4.71000e-001,-5.95294e-003,7.06500e+000,4.42982e-001,7.06500e+000,-1.52532e+000,7.06500e+000,-1.39521e+002
4.72000e-001,-2.00043e-003,7.08000e+000,3.56293e-001,7.08000e+000,-1.61338e+000,7.08000e+000,-1.36696e+002
4.73000e-001,1.63250e-003,7.09500e+000,3.01048e-001,7.09500e+000,-1.71957e+000,7.09500e+000,-1.35393e+002
4.74000e-001,5.20131e-003,7.11000e+000,2.61199e-001,7.11000e+000,-1.77899e+000,7.11000e+000,-1.34656e+002
4.75000e-001,8.70634e-003,7.12500e+000,2.02496e-001,7.12500e+000,-1.90543e+000,7.12500e+000,-1.33925e+002
4.76000e-001,1.06883e-002,7.14000e+000,2.02163e-001,7.14000e+000,-1.90417e+000,7.14000e+000,-1.33647e+002
4.77000e-001,1.06373e-002,7.15500e+000,2.35483e-001,7.15500e+000,-1.88533e+000,7.15500e+000,-1.33202e+002
4.78000e-001,9.37774e-003,7.17000e+000,2.48010e-001,7.17000e+000,-1.82713e+000,7.17000e+000,-1.32851e+002
4.79000e-001,6.51020e-003,7.18500e+000,2.63786e-001,7.18500e+000,-1.79115e+000,7.18500e+000,-1.32561e+002
4.80000e-001,3.25426e-003,7.20000e+000,2.53533e-001,7.20000e+000,-1.79617e+000,7.20000e+000,-1.32290e+002
4.81000e-001,-3.08843e-005,7.21500e+000,2.46303e-001,7.21500e+000,-1.79824e+000,7.21500e+000,-1.32096e+002
4.82000e-001,-3.47280e-003,7.23000e+000,2.38737e-001,7.23000e+000,-1.79645e+000,7.23000e+000,-1.31848e+002
4.83000e-001,-7.31923e-003,7.24500e+000,2.29965e-001,7.24500e+000,-1.79647e+000,7.24500e+000,-1.31681e+002
4.84000e-001,-1.06349e-002,7.26000e+000,2.20877e-001,7.26000e+000,-1.79859e+000,7.26000e+000,-1.31466e+002
4.85000e-001,-1.09867e-002,7.27500e+000,2.12835e-001,7.27500e+000,-1.79895e+000,7.27500e+000,-1.31284e+002
4.86000e-001,-1.07212e-002,7.29000e+000,2.06160e-001,7.29000e+000,-1.80127e+000,7.29000e+000,-1.31101e+002
4.87000e-001,-8.52305e-003,7.30500e+000,1.98357e-001,7.30500e+000,-1.79903e+000,7.30500e+000,-1.30906e+002
4.88000e-001,-4.50809e-003,7.32000e+000,1.94181e-001,7.32000e+000,-1.80500e+000,7.32000e+000,-1.30718e+002
4.89000e-001,-6.46555e-004,7.33500e+000,1.88656e-001,7.33500e+000,-1.80280e+000,7.33500e+000,-1.30467e+002
4.90000e-001,2.98067e-003,7.35000e+000,1.79491e-001,7.35000e+000,-1.80711e+000,7.35000e+000,-1.30326e+002
4.91000e-001,6.51356e-003,7.36500e+000,1.72677e-001,7.36500e+000,-1.80815e+000,7.36500e+000,-1.30209e+002
4.92000e-001,9.71209e-003,7.38000e+000,1.67080e-001,7.38000e+000,-1.80835e+000,7.38000e+000,-1.30041e+002
4.93000e-001,1.07991e-002,7.39500e+000,1.62818e-001,7.39500e+000,-1.80736e+000,7.39500e+000,-1.29909e+002
4.94000e-001,1.04503e-002,7.41000e+000,1.53158e-001,7.41000e+000,-1.80499e+000,7.41000e+000,-1.29743e+002
4.95000e-001,8.57609e-003,7.42500e+000,1.47825e-001,7.42500e+000,-1.80725e+000,7.42500e+000,-1.29590e+002
4.96000e-001,5.43597e-003,7.44000e+000,1.44328e-001,7.44000e+000,-1.80397e+000,7.44000e+000,-1.29446e+002
4.97000e-001,2.14679e-003,7.45500e+000,1.38513e-001,7.45500e+000,-1.81143e+000,7.45500e+000,-1.29235e+002
4.98000e-001,-1.18737e-003,7.47000e+000,1.35221e-001,7.47000e+000,-1.81607e+000,7.47000e+000,-1.29095e+002
4.99000e-001,-4.69978e-003,7.48500e+000,1.26722e-001,7.48500e+000,-1.82041e+000,7.48500e+000,-1.28924e+002
5.00000e-001,-8.73286e-003,7.50000e+000,1.26835e-001,7.50000e+000,-1.82325e+000,7.50000e+000,-1.28794e+002
5.01000e-001,-1.09770e-002,7.51500e+000,1.19213e-001,7.51500e+000,-1.82080e+000,7.51500e+000,-1.28650e+002
5.02000e-001,-1.09270e-002,7.53000e+000,1.17950e-001,7.53000e+000,-1.82724e+000,7.53000e+000,-1.28552e+002
5.03000e-001,-1.03556e-002,7.54500e+000,1.15218e-001,7.54500e+000,-1.82832e+000,7.54500e+000,-1.28448e+002
5.04000e-001,-7.23397e-003,7.56000e+000,1.07643e-001,7.56000e+000,-1.83019e+000,7.56000e+000,-1.28297e+002
5.05000e-001,-3.17134e-003,7.57500e+000,1.13267e-001,7.57500e+000,-1.82216e+000,7.57500e+000,-1.28125e+002
5.06000e-001,5.80423e-004,7.59000e+000,-2.19046e-002,7.59000e+000,-1.84513e+000,7.59000e+000,-1.26919e+002
5.07000e-001,4.18650e-003,7.60500e+000,-1.46392e-001,7.60500e+000,-1.76469e+000,7.60500e+000,-1.25607e+002
5.08000e-001,7.72476e-003,7.62000e+000,-2.16671e-001,7.62000e+000,-1.48748e+000,7.62000e+000,-1.24238e+002
5.09000e-001,1.03741e-002,7.63500e+000,-2.91799e-001,7.63500e+000,-1.43223e+000,7.63500e+000,-1.22489e+002
5.10000e-001,1.07319e-002,7.65000e+000,-3.45067e-001,7.65000e+000,-1.42657e+000,7.65000e+000,-1.21185e+002
5.11000e-001,9.99005e-003,7.66500e+000,-4.11012e-001,7.66500e+000,-1.41008e+000,7.66500e+000,-1.19521e+002
5.12000e-001,7.46828e-003,7.68000e+000,-3.72470e-001,7.68000e+000,-1.41258e+000,7.68000e+000,-1.19129e+002
5.13000e-001,4.24390e-003,7.69500e+000,-4.04697e-001,7.69500e+000,-1.34954e+000,7.69500e+000,-1.18267e+002
5.14000e-001,9.51705e-004,7.71000e+000,-4.40298e-001,7.71000e+000,-1.25610e+000,7.71000e+000,-1.17136e+002
5.15000e-001,-2.45496e-003,7.72500e+000,-4.86467e-001,7.72500e+000,-1.23898e+000,7.72500e+000,-1.15791e+002
5.16000e-001,-6.08487e-003,7.74000e+000,-5.73678e-001,7.74000e+000,-1.27990e+000,7.74000e+000,-1.14199e+002
5.17000e-001,-9.94977e-003,7.75500e+000,-6.74534e-001,7.75500e+000,-1.29507e+000,7.75500e+000,-1.13132e+002
5.18000e-001,-1.09857e-002,7.77000e+000,-7.65348e-001,7.77000e+000,-1.25509e+000,7.77000e+000,-1.11702e+002
5.19000e-001,-1.08414e-002,7.78500e+000,-8.86758e-001,7.78500e+000,-1.19815e+000,7.78500e+000,-1.10275e+002
5.20000e-001,-9.58923e-003,7.80000e+000,-9.51481e-001,7.80000e+000,-1.17338e+000,7.80000e+000,-1.08570e+002
5.21000e-001,-5.84082e-003,7.81500e+000,-1.07389e+000,7.81500e+000,-1.10167e+000,7.81500e+000,-1.05939e+002
5.22000e-001,-1.86682e-003,7.83000e+000,-1.24435e+000,7.83000e+000,-1.12314e+000,7.83000e+000,-1.03967e+002
5.23000e-001,1.76410e-003,7.84500e+000,-1.37790e+000,7.84500e+000,-1.13776e+000,7.84500e+000,-1.01433e+002
5.24000e-001,5.34667e-003,7.86000e+000,-1.48954e+000,7.86000e+000,-1.05890e+000,7.86000e+000,-9.95529e+001
5.25000e-001,8.83928e-003,7.87500e+000,-1.58614e+000,7.87500e+000,-9.78061e-001,7.87500e+000,-9.76086e+001
5.26000e-001,1.07299e-002,7.89000e+000,-1.71660e+000,7.89000e+000,-8.62660e-001,7.89000e+000,-9.44801e+001
5.27000e-001,1.06285e-002,7.90500e+000,-1.83201e+000,7.90500e+000,-8.15694e-001,7.90500e+000,-9.13633e+001
5.28000e-001,9.35692e-003,7.92000e+000,-1.74103e+000,7.92000e+000,-7.10353e-001,7.92000e+000,-8.73362e+001
5.29000e-001,6.44239e-003,7.93500e+000,-1.78794e+000,7.93500e+000,-6.68113e-001,7.93500e+000,-8.53670e+001
5.30000e-001,3.19518e-003,7.95000e+000,-1.96075e+000,7.95000e+000,-6.29128e-001,7.95000e+000,-8.37797e+001
5.31000e-001,-8.69459e-005,7.96500e+000,-2.05952e+000,7.96500e+000,-6.25416e-001,7.96500e+000,-8.24940e+001
5.32000e-001,-3.52349e-003,7.98000e+000,-2.12543e+000,7.98000e+000,-5.84926e-001,7.98000e+000,-8.07756e+001
5.33000e-001,-7.38470e-003,7.99500e+000,-2.14100e+000,7.99500e+000,-5.34746e-001,7.99500e+000,-7.83361e+001
5.34000e-001,-1.06641e-002,8.01000e+000,-2.06813e+000,8.01000e+000,-5.07214e-001,8.01000e+000,-7.61949e+001
5.35000e-001,-1.09867e-002,8.02500e+000,-1.81365e+000,8.02500e+000,-3.91254e-001,8.02500e+000,-7.25469e+001
5.36000e-001,-1.06970e-002,8.04000e+000,-1.35867e+000,8.04000e+000,-3.72471e-001,8.04000e+000,-7.05410e+001
5.37000e-001,-8.40018e-003,8.05500e+000,-1.12090e+000,8.05500e+000,-2.86144e-001,8.05500e+000,-6.91494e+001
5.38000e-001,-4.38926e-003,8.07000e+000,-1.13631e+000,8.07000e+000,-2.34116e-001,8.07000e+000,-6.74002e+001
5.39000e-001,-5.43160e-004,8.08500e+000,-1.11590e+000,8.08500e+000,-2.77979e-001,8.08500e+000,-6.65136e+001
5.40000e-001,3.06593e-003,8.10000e+000,-1.09806e+000,8.10000e+000,-2.74003e-001,8.10000e+000,-6.55387e+001
5.41000e-001,6.61091e-003,8.11500e+000,-1.04618e+000,8.11500e+000,-2.49447e-001,8.11500e+000,-6.47988e+001
5.42000e-001,9.77856e-003,8.13000e+000,-1.00489e+000,8.13000e+000,-2.01628e-001,8.13000e+000,-6.39173e+001
5.43000e-001,1.07924e-002,8.14500e+000,-9.97648e-001,8.14500e+000,-1.51518e-001,8.14500e+000,-6.29408e+001
5.44000e-001,1.03996e-002,8.16000e+000,-9.74471e-001,8.16000e+000,-1.16663e-001,8.16000e+000,-6.17140e+001
5.45000e-001,8.40656e-003,8.17500e+000,-9.74998e-001,8.17500e+000,-8.89568e-002,8.17500e+000,-6.00513e+001
5.46000e-001,5.25536e-003,8.19000e+000,-9.85563e-001,8.19000e+000,-3.86637e-002,8.19000e+000,-5.89615e+001
5.47000e-001,1.96887e-003,8.20500e+000,-1.06210e+000,8.20500e+000,-4.64705e-002,8.20500e+000,-5.81956e+001
5.48000e-001,-1.34514e-003,8.22000e+000,-1.08613e+000,8.22000e+000,-3.04966e-002,8.22000e+000,-5.78365e+001
5.49000e-001,-4.84883e-003,8.23500e+000,-1.07461e+000,8.23500e+000,-1.16555e-002,8.23500e+000,-5.72116e+001
5.50000e-001,-8.87318e-003,8.25000e+000,-1.02877e+000,8.25000e+000,6.81386e-003,8.25000e+000,-5.62134e+001
5.51000e-001,-1.09794e-002,8.26500e+000,-1.05309e+000,8.26500e+000,2.66712e-002,8.26500e+000,-5.59596e+001
5.52000e-001,-1.09129e-002,8.28000e+000,-1.09532e+000,8.28000e+000,5.01195e-003,8.28000e+000,-5.60269e+001
5.53000e-001,-1.02929e-002,8.29500e+000,-1.10297e+000,8.29500e+000,-1.38653e-002,8.29500e+000,-5.65414e+001
5.54000e-001,-7.09868e-003,8.31000e+000,-1.12228e+000,8.31000e+000,-2.71879e-002,8.31000e+000,-5.72632e+001
5.55000e-001,-3.06996e-003,8.32500e+000,-1.13264e+000,8.32500e+000,-3.39778e-002,8.32500e+000,-5.78031e+001
5.56000e-001,6.28092e-004,8.34000e+000,-1.14075e+000,8.34000e+000,-4.32655e-002,8.34000e+000,-5.83157e+001
5.57000e-001,4.23584e-003,8.35500e+000,-1.13708e+000,8.35500e+000,-4.49394e-002,8.35500e+000,-5.89911e+001
5.58000e-001,7.81741e-003,8.37000e+000,-1.13232e+000,8.37000e+000,-3.67934e-002,8.37000e+000,-5.95149e+001
5.59000e-001,1.04291e-002,8.38500e+000,-1.13440e+000,8.38500e+000,-4.70692e-002,8.38500e+000,-6.02166e+001
5.60000e-001,1.07286e-002,8.40000e+000,-1.14313e+000,8.40000e+000,-4.94452e-002,8.40000e+000,-6.07316e+001
5.61000e-001,9.94574e-003,8.41500e+000,-1.14852e+000,8.41500e+000,-4.76842e-002,8.41500e+000,-6.12378e+001
5.62000e-001,7.37395e-003,8.43000e+000,-1.15636e+000,8.43000e+000,-5.03103e-002,8.43000e+000,-6.18901e+001
5.63000e-001,4.16031e-003,8.44500e+000,-1.16793e+000,8.44500e+000,-5.52305e-002,8.44500e+000,-6.23597e+001
5.64000e-001,8.73152e-004,8.46000e+000,-1.17855e+000,8.46000e+000,-5.49104e-002,8.46000e+000,-6.29907e+001
5.65000e-001,-2.51237e-003,8.47500e+000,-1.19115e+000,8.47500e+000,-6.20800e-002,8.47500e+000,-6.34515e+001
5.66000e-001,-6.14597e-003,8.49000e+000,-1.19944e+000,8.49000e+000,-6.33603e-002,8.49000e+000,-6.39138e+001
5.67000e-001,-9.96991e-003,8.50500e+000,-1.21007e+000,8.50500e+000,-6.57507e-002,8.50500e+000,-6.44990e+001
5.68000e-001,-1.09857e-002,8.52000e+000,-1.21726e+000,8.52000e+000,-7.20581e-002,8.52000e+000,-6.49715e+001
5.69000e-001,-1.08293e-002,8.53500e+000,-1.21768e+000,8.53500e+000,-8.05474e-002,8.53500e+000,-6.55262e+001
5.70000e-001,-9.37774e-003,8.55000e+000,-1.22417e+000,8.55000e+000,-8.35357e-002,8.55000e+000,-6.59711e+001
5.71000e-001,-5.59274e-003,8.56500e+000,-1.22590e+000,8.56500e+000,-9.29622e-002,8.56500e+000,-6.65278e+001
5.72000e-001,-1.65399e-003,8.58000e+000,-1.22916e+000,8.58000e+000,-9.83220e-002,8.58000e+000,-6.69803e+001
5.73000e-001,1.96283e-003,8.59500e+000,-1.24114e+000,8.59500e+000,-1.02785e-001,8.59500e+000,-6.74257e+001
5.74000e-001,5.50646e-003,8.61000e+000,-1.24190e+000,8.61000e+000,-1.11284e-001,8.61000e+000,-6.79675e+001
5.75000e-001,8.94536e-003,8.62500e+000,-1.24417e+000,8.62500e+000,-1.12751e-001,8.62500e+000,-6.83754e+001
5.76000e-001,1.07407e-002,8.64000e+000,-1.24967e+000,8.64000e+000,-1.22288e-001,8.64000e+000,-6.89287e+001
5.77000e-001,1.06037e-002,8.65500e+000,-1.25788e+000,8.65500e+000,-1.28567e-001,8.65500e+000,-6.93310e+001
5.78000e-001,9.20586e-003,8.67000e+000,-1.26231e+000,8.67000e+000,-1.33611e-001,8.67000e+000,-6.97345e+001
5.79000e-001,6.25708e-003,8.68500e+000,-1.26630e+000,8.68500e+000,-1.42628e-001,8.68500e+000,-7.02492e+001
5.80000e-001,3.00954e-003,8.70000e+000,-1.27097e+000,8.70000e+000,-1.42360e-001,8.70000e+000,-7.06344e+001
5.81000e-001,-2.66209e-004,8.71500e+000,-1.27759e+000,8.71500e+000,-1.46923e-001,8.71500e+000,-7.11114e+001
5.82000e-001,-3.71585e-003,8.73000e+000,-1.27861e+000,8.73000e+000,-1.51450e-001,8.73000e+000,-7.14878e+001
5.83000e-001,-7.61297e-003,8.74500e+000,-1.28011e+000,8.74500e+000,-1.54720e-001,8.74500e+000,-7.19539e+001
5.84000e-001,-1.07575e-002,8.76000e+000,-1.28625e+000,8.76000e+000,-1.62741e-001,8.76000e+000,-7.22814e+001
5.85000e-001,-1.09867e-002,8.77500e+000,-1.29536e+000,8.77500e+000,-1.66786e-001,8.77500e+000,-7.26411e+001
5.86000e-001,-1.06735e-002,8.79000e+000,-1.29545e+000,8.79000e+000,-1.70658e-001,8.79000e+000,-7.30912e+001
5.87000e-001,-8.27329e-003,8.80500e+000,-1.30406e+000,8.80500e+000,-1.74479e-001,8.80500e+000,-7.34188e+001
5.88000e-001,-4.24625e-003,8.82000e+000,-1.30982e+000,8.82000e+000,-1.79808e-001,8.82000e+000,-7.38476e+001
5.89000e-001,-4.30701e-004,8.83500e+000,-1.31385e+000,8.83500e+000,-1.82378e-001,8.83500e+000,-7.41786e+001
5.90000e-001,3.16933e-003,8.85000e+000,-1.31354e+000,8.85000e+000,-1.85549e-001,8.85000e+000,-7.45105e+001
5.91000e-001,6.69416e-003,8.86500e+000,-1.31950e+000,8.86500e+000,-1.88069e-001,8.86500e+000,-7.49368e+001
5.92000e-001,9.81549e-003,8.88000e+000,-1.32673e+000,8.88000e+000,-1.89904e-001,8.88000e+000,-7.52657e+001
5.93000e-001,1.07924e-002,8.89500e+000,-1.30415e+000,8.89500e+000,-1.70638e-001,8.89500e+000,-7.52936e+001
5.94000e-001,1.03580e-002,8.91000e+000,-1.25582e+000,8.91000e+000,-1.63511e-001,8.91000e+000,-7.49751e+001
5.95000e-001,8.28168e-003,8.92500e+000,-1.46427e+000,8.92500e+000,-1.59870e-001,8.92500e+000,-7.45788e+001
5.96000e-001,5.14189e-003,8.94000e+000,-1.39529e+000,8.94000e+000,-2.03827e-001,8.94000e+000,-7.42669e+001
5.97000e-001,1.86044e-003,8.95500e+000,-1.37775e+000,8.95500e+000,-1.86130e-001,8.95500e+000,-7.48950e+001
5.98000e-001,-1.46130e-003,8.97000e+000,-1.21137e+000,8.97000e+000,-1.83248e-001,8.97000e+000,-7.51361e+001
5.99000e-001,-4.94585e-003,8.98500e+000,-1.11175e+000,8.98500e+000,-2.00162e-001,8.98500e+000,-7.54165e+001
6.00000e-001,-8.96550e-003,9.00000e+000,-1.01681e+000,9.00000e+000,-2.10322e-001,9.00000e+000,-7.56359e+001
6.01000e-001,-1.09807e-002,9.01500e+000,-9.75453e-001,9.01500e+000,-1.83137e-001,9.01500e+000,-7.56292e+001
6.02000e-001,-1.09008e-002,9.03000e+000,-9.44779e-001,9.03000e+000,-1.71545e-001,9.03000e+000,-7.57186e+001
6.03000e-001,-1.01750e-002,9.04500e+000,-8.80001e-001,9.04500e+000,-1.61084e-001,9.04500e+000,-7.59835e+001
6.04000e-001,-6.87846e-003,9.06000e+000,-8.14198e-001,9.06000e+000,-1.56920e-001,9.06000e+000,-7.61924e+001
6.05000e-001,-2.86250e-003,9.07500e+000,-7.00556e-001,9.07500e+000,-1.60768e-001,9.07500e+000,-7.63546e+001
6.06000e-001,8.14740e-004,9.09000e+000,-6.20767e-001,9.09000e+000,5.92291e-002,9.09000e+000,-7.63947e+001
6.07000e-001,4.41309e-003,9.10500e+000,-5.64539e-001,9.10500e+000,3.55816e-001,9.10500e+000,-7.63063e+001
6.08000e-001,7.94296e-003,9.12000e+000,-5.93971e-001,9.12000e+000,8.70850e-001,9.12000e+000,-7.61627e+001
6.09000e-001,1.04708e-002,9.13500e+000,-7.14699e-001,9.13500e+000,1.17853e+000,9.13500e+000,-7.61995e+001
6.10000e-001,1.07178e-002,9.15000e+000,-1.05385e+000,9.15000e+000,1.36970e+000,9.15000e+000,-7.63012e+001
6.11000e-001,9.90411e-003,9.16500e+000,-1.31614e+000,9.16500e+000,1.59149e+000,9.16500e+000,-7.64004e+001
6.12000e-001,7.28231e-003,9.18000e+000,-1.62849e+000,9.18000e+000,1.81955e+000,9.18000e+000,-7.65804e+001
6.13000e-001,4.04114e-003,9.19500e+000,-1.76966e+000,9.19500e+000,1.98168e+000,9.19500e+000,-7.66794e+001
6.14000e-001,7.63043e-004,9.21000e+000,-1.80611e+000,9.21000e+000,2.16435e+000,9.21000e+000,-7.68034e+001
6.15000e-001,-2.64228e-003,9.22500e+000,-1.78152e+000,9.22500e+000,2.42738e+000,9.22500e+000,-7.71886e+001
6.16000e-001,-6.32691e-003,9.24000e+000,-1.72357e+000,9.24000e+000,2.69207e+000,9.24000e+000,-7.74370e+001
6.17000e-001,-1.01230e-002,9.25500e+000,-1.65327e+000,9.25500e+000,3.13400e+000,9.25500e+000,-7.77787e+001
6.18000e-001,-1.09857e-002,9.27000e+000,-1.61638e+000,9.27000e+000,3.74839e+000,9.27000e+000,-7.81189e+001
6.19000e-001,-1.08226e-002,9.28500e+000,-1.57209e+000,9.28500e+000,5.24503e+000,9.28500e+000,-7.84391e+001
6.20000e-001,-9.32973e-003,9.30000e+000,-1.70939e+000,9.30000e+000,6.49127e+000,9.30000e+000,-7.89845e+001
6.21000e-001,-5.51385e-003,9.31500e+000,-1.99759e+000,9.31500e+000,7.17009e+000,9.31500e+000,-7.92728e+001
6.22000e-001,-1.57006e-003,9.33000e+000,-2.29845e+000,9.33000e+000,8.33705e+000,9.33000e+000,-7.96872e+001
6.23000e-001,2.07294e-003,9.34500e+000,-2.46725e+000,9.34500e+000,9.46897e+000,9.34500e+000,-8.00693e+001
6.24000e-001,5.63403e-003,9.36000e+000,-2.44549e+000,9.36000e+000,1.08766e+001,9.36000e+000,-8.03928e+001
6.25000e-001,9.04741e-003,9.37500e+000,-2.13586e+000,9.37500e+000,1.13758e+001,9.37500e+000,-8.07592e+001
6.26000e-001,1.07588e-002,9.39000e+000,-1.88809e+000,9.39000e+000,1.13764e+001,9.39000e+000,-8.10205e+001
6.27000e-001,1.05930e-002,9.40500e+000,-1.76873e+000,9.40500e+000,1.14122e+001,9.40500e+000,-8.12382e+001
6.28000e-001,9.15148e-003,9.42000e+000,-1.83906e+000,9.42000e+000,1.14554e+001,9.42000e+000,-8.13804e+001
6.29000e-001,6.15872e-003,9.43500e+000,-2.09948e+000,9.43500e+000,1.15256e+001,9.43500e+000,-8.16199e+001
6.30000e-001,2.88499e-003,9.45000e+000,-2.26740e+000,9.45000e+000,1.15213e+001,9.45000e+000,-8.18042e+001
6.31000e-001,-4.03845e-004,9.46500e+000,-2.35616e+000,9.46500e+000,1.15128e+001,9.46500e+000,-8.20205e+001
6.32000e-001,-3.85315e-003,9.48000e+000,-2.47283e+000,9.48000e+000,1.15331e+001,9.48000e+000,-8.24005e+001
6.33000e-001,-7.77108e-003,9.49500e+000,-2.55984e+000,9.49500e+000,1.15667e+001,9.49500e+000,-8.27123e+001
6.34000e-001,-1.08152e-002,9.51000e+000,-2.76809e+000,9.51000e+000,1.17507e+001,9.51000e+000,-8.32166e+001
6.35000e-001,-1.09871e-002,9.52500e+000,-2.96016e+000,9.52500e+000,1.21350e+001,9.52500e+000,-8.35343e+001
6.36000e-001,-1.06299e-002,9.54000e+000,-2.99795e+000,9.54000e+000,1.25764e+001,9.54000e+000,-8.37048e+001
6.37000e-001,-8.10208e-003,9.55500e+000,-2.98503e+000,9.55500e+000,1.34638e+001,9.55500e+000,-8.38883e+001
6.38000e-001,-4.06262e-003,9.57000e+000,-2.75236e+000,9.57000e+000,1.49697e+001,9.57000e+000,-8.40340e+001
6.39000e-001,-2.70237e-004,9.58500e+000,-2.16971e+000,9.58500e+000,1.84873e+001,9.58500e+000,-8.43046e+001
6.40000e-001,3.32375e-003,9.60000e+000,-1.90010e+000,9.60000e+000,1.99044e+001,9.60000e+000,-8.44959e+001
6.41000e-001,6.85026e-003,9.61500e+000,-1.81872e+000,9.61500e+000,2.10495e+001,9.61500e+000,-8.46440e+001
6.42000e-001,9.91351e-003,9.63000e+000,-1.69628e+000,9.63000e+000,2.16862e+001,9.63000e+000,-8.48300e+001
6.43000e-001,1.07877e-002,9.64500e+000,-1.58850e+000,9.64500e+000,2.22841e+001,9.64500e+000,-8.49971e+001
6.44000e-001,1.03338e-002,9.66000e+000,-1.49757e+000,9.66000e+000,2.25677e+001,9.66000e+000,-8.52156e+001
6.45000e-001,8.21488e-003,9.67500e+000,-1.39319e+000,9.67500e+000,2.25543e+001,9.67500e+000,-8.52807e+001
6.46000e-001,5.04823e-003,9.69000e+000,-1.14204e+000,9.69000e+000,2.25264e+001,9.69000e+000,-8.53291e+001
6.47000e-001,1.76410e-003,9.70500e+000,-9.61494e-001,9.70500e+000,2.25789e+001,9.70500e+000,-8.53857e+001
6.48000e-001,-1.59826e-003,9.72000e+000,-8.96894e-001,9.72000e+000,2.26132e+001,9.72000e+000,-8.54690e+001
6.49000e-001,-5.10195e-003,9.73500e+000,-8.20292e-001,9.73500e+000,2.27576e+001,9.73500e+000,-8.56424e+001
6.50000e-001,-9.11824e-003,9.75000e+000,-9.58850e-001,9.75000e+000,2.29991e+001,9.75000e+000,-8.59286e+001
6.51000e-001,-1.09824e-002,9.76500e+000,-1.34914e+000,9.76500e+000,2.35968e+001,9.76500e+000,-8.64001e+001
6.52000e-001,-1.08931e-002,9.78000e+000,-1.55969e+000,9.78000e+000,2.45722e+001,9.78000e+000,-8.68281e+001
6.53000e-001,-1.01250e-002,9.79500e+000,-1.52621e+000,9.79500e+000,2.72763e+001,9.79500e+000,-8.72908e+001
6.54000e-001,-6.77205e-003,9.81000e+000,-1.13641e+000,9.81000e+000,3.04918e+001,9.81000e+000,-8.75154e+001
6.55000e-001,-2.72822e-003,9.82500e+000,-2.09247e+000,9.82500e+000,3.24884e+001,9.82500e+000,-8.82966e+001
6.56000e-001,9.55062e-004,9.84000e+000,-1.66600e+000,9.84000e+000,3.27877e+001,9.84000e+000,-8.81478e+001
6.57000e-001,4.54166e-003,9.85500e+000,-1.77470e+000,9.85500e+000,3.33458e+001,9.85500e+000,-8.83182e+001
6.58000e-001,8.04569e-003,9.87000e+000,-1.90122e+000,9.87000e+000,3.43481e+001,9.87000e+000,-8.85490e+001
6.59000e-001,1.05017e-002,9.88500e+000,-1.89839e+000,9.88500e+000,3.47924e+001,9.88500e+000,-8.87307e+001
6.60000e-001,1.07084e-002,9.90000e+000,-1.89760e+000,9.90000e+000,3.48055e+001,9.90000e+000,-8.88711e+001
6.61000e-001,9.82757e-003,9.91500e+000,-1.89384e+000,9.91500e+000,3.47317e+001,9.91500e+000,-8.89270e+001
6.62000e-001,7.14601e-003,9.93000e+000,-1.75428e+000,9.93000e+000,3.48082e+001,9.93000e+000,-8.88727e+001
6.63000e-001,3.89175e-003,9.94500e+000,-1.77202e+000,9.94500e+000,3.49154e+001,9.94500e+000,-8.89532e+001
6.64000e-001,6.10971e-004,9.96000e+000,-1.70209e+000,9.96000e+000,3.52953e+001,9.96000e+000,-8.90448e+001
6.65000e-001,-2.79973e-003,9.97500e+000,-1.67959e+000,9.97500e+000,3.64728e+001,9.97500e+000,-8.93032e+001
6.66000e-001,-6.48234e-003,9.99000e+000,-1.89798e+000,9.99000e+000,4.00597e+001,9.99000e+000,-9.00608e+001
6.67000e-001,-1.02133e-002,1.00050e+001,-3.23286e+000,1.00050e+001,4.34172e+001,1.00050e+001,-9.16281e+001
6.68000e-001,-1.09861e-002,1.00200e+001,-5.04830e+000,1.00200e+001,4.48642e+001,1.00200e+001,-9.35640e+001
6.69000e-001,-1.08095e-002,1.00350e+001,-4.86232e+000,1.00350e+001,4.63223e+001,1.00350e+001,-9.37580e+001
6.70000e-001,-9.20586e-003,1.00500e+001,-5.00351e+000,1.00500e+001,4.78312e+001,1.00500e+001,-9.42153e+001
6.71000e-001,-5.33828e-003,1.00650e+001,-5.14080e+000,1.00650e+001,4.85838e+001,1.00650e+001,-9.46700e+001
6.72000e-001,-1.40423e-003,1.00800e+001,-5.15378e+000,1.00800e+001,4.88796e+001,1.00800e+001,-9.47629e+001
6.73000e-001,2.21796e-003,1.00950e+001,-5.15644e+000,1.00950e+001,4.95426e+001,1.00950e+001,-9.49577e+001
6.74000e-001,5.77569e-003,1.01100e+001,-5.14687e+000,1.01100e+001,5.02780e+001,1.01100e+001,-9.50724e+001
6.75000e-001,9.15215e-003,1.01250e+001,-5.55431e+000,1.01250e+001,5.17426e+001,1.01250e+001,-9.55472e+001
6.76000e-001,1.07776e-002,1.01400e+001,-5.98649e+000,1.01400e+001,5.33186e+001,1.01400e+001,-9.60569e+001
6.77000e-001,1.05755e-002,1.01550e+001,-6.31993e+000,1.01550e+001,5.50531e+001,1.01550e+001,-9.66441e+001
6.78000e-001,9.08232e-003,1.01700e+001,-7.10922e+000,1.01700e+001,5.77663e+001,1.01700e+001,-9.73672e+001
6.79000e-001,6.05701e-003,1.01850e+001,-7.53489e+000,1.01850e+001,5.96932e+001,1.01850e+001,-9.78729e+001
6.80000e-001,2.76381e-003,1.02000e+001,-7.94852e+000,1.02000e+001,6.11075e+001,1.02000e+001,-9.82793e+001
6.81000e-001,-5.18654e-004,1.02150e+001,-7.91721e+000,1.02150e+001,6.11392e+001,1.02150e+001,-9.82063e+001
6.82000e-001,-3.96594e-003,1.02300e+001,-8.08792e+000,1.02300e+001,6.10521e+001,1.02300e+001,-9.82920e+001
6.83000e-001,-7.89831e-003,1.02450e+001,-8.32866e+000,1.02450e+001,6.11170e+001,1.02450e+001,-9.84738e+001
6.84000e-001,-1.08565e-002,1.02600e+001,-9.24674e+000,1.02600e+001,6.12971e+001,1.02600e+001,-9.93575e+001
6.85000e-001,-1.09867e-002,1.02750e+001,-9.99457e+000,1.02750e+001,6.17778e+001,1.02750e+001,-1.00206e+002
6.86000e-001,-1.05916e-002,1.02900e+001,-1.05112e+001,1.02900e+001,6.26516e+001,1.02900e+001,-1.00840e+002
6.87000e-001,-7.97284e-003,1.03050e+001,-1.07924e+001,1.03050e+001,6.34857e+001,1.03050e+001,-1.01274e+002
6.88000e-001,-3.94849e-003,1.03200e+001,-1.08109e+001,1.03200e+001,6.37306e+001,1.03200e+001,-1.01345e+002
6.89000e-001,-1.71542e-004,1.03350e+001,-1.07997e+001,1.03350e+001,6.39598e+001,1.03350e+001,-1.01387e+002
6.90000e-001,3.42815e-003,1.03500e+001,-1.07525e+001,1.03500e+001,6.42562e+001,1.03500e+001,-1.01433e+002
6.91000e-001,6.95265e-003,1.03650e+001,-1.07677e+001,1.03650e+001,6.45252e+001,1.03650e+001,-1.01459e+002
6.92000e-001,9.96722e-003,1.03800e+001,-1.10940e+001,1.03800e+001,6.48849e+001,1.03800e+001,-1.01877e+002
6.93000e-001,1.07836e-002,1.03950e+001,-1.14804e+001,1.03950e+001,6.51373e+001,1.03950e+001,-1.02291e+002
6.94000e-001,1.03002e-002,1.04100e+001,-1.18395e+001,1.04100e+001,6.56256e+001,1.04100e+001,-1.02769e+002
6.95000e-001,8.11182e-003,1.04250e+001,-1.20303e+001,1.04250e+001,6.65646e+001,1.04250e+001,-1.03209e+002
6.96000e-001,4.91295e-003,1.04400e+001,-1.05200e+001,1.04400e+001,6.75743e+001,1.04400e+001,-1.01930e+002
6.97000e-001,1.64862e-003,1.04550e+001,-1.00018e+001,1.04550e+001,6.83412e+001,1.04550e+001,-1.01783e+002
6.98000e-001,-1.69360e-003,1.04700e+001,-1.02056e+001,1.04700e+001,6.86592e+001,1.04700e+001,-1.02068e+002
6.99000e-001,-5.20400e-003,1.04850e+001,-1.04231e+001,1.04850e+001,6.91340e+001,1.04850e+001,-1.02463e+002
7.00000e-001,-9.22466e-003,1.05000e+001,-1.06767e+001,1.05000e+001,6.96014e+001,1.05000e+001,-1.02802e+002
7.01000e-001,-1.09834e-002,1.05150e+001,-1.10120e+001,1.05150e+001,7.02128e+001,1.05150e+001,-1.03215e+002
7.02000e-001,-1.08844e-002,1.05300e+001,-1.15756e+001,1.05300e+001,7.10959e+001,1.05300e+001,-1.03909e+002
7.03000e-001,-1.00428e-002,1.05450e+001,-1.20076e+001,1.05450e+001,7.17279e+001,1.05450e+001,-1.04380e+002
7.04000e-001,-6.62199e-003,1.05600e+001,-1.25167e+001,1.05600e+001,7.24368e+001,1.05600e+001,-1.04940e+002
7.05000e-001,-2.61946e-003,1.05750e+001,-1.28542e+001,1.05750e+001,7.28517e+001,1.05750e+001,-1.05333e+002
7.06000e-001,1.06685e-003,1.05900e+001,-1.31800e+001,1.05900e+001,7.32234e+001,1.05900e+001,-1.05729e+002
7.07000e-001,4.66050e-003,1.06050e+001,-1.37400e+001,1.06050e+001,7.37023e+001,1.06050e+001,-1.06509e+002
7.08000e-001,8.17694e-003,1.06200e+001,-1.41128e+001,1.06200e+001,7.41445e+001,1.06200e+001,-1.07035e+002
7.09000e-001,1.05493e-002,1.06350e+001,-1.48447e+001,1.06350e+001,7.48978e+001,1.06350e+001,-1.07949e+002
7.10000e-001,1.06977e-002,1.06500e+001,-1.60665e+001,1.06500e+001,7.59802e+001,1.06500e+001,-1.09232e+002
7.11000e-001,9.77890e-003,1.06650e+001,-1.77756e+001,1.06650e+001,7.73721e+001,1.06650e+001,-1.10958e+002
7.12000e-001,7.06746e-003,1.06800e+001,-1.80028e+001,1.06800e+001,7.79255e+001,1.06800e+001,-1.11280e+002
7.13000e-001,3.81555e-003,1.06950e+001,-1.83058e+001,1.06950e+001,7.87584e+001,1.06950e+001,-1.11671e+002
7.14000e-001,5.22011e-004,1.07100e+001,-1.87837e+001,1.07100e+001,8.00176e+001,1.07100e+001,-1.12242e+002
7.15000e-001,-2.90245e-003,1.07250e+001,-1.92842e+001,1.07250e+001,8.11203e+001,1.07250e+001,-1.12741e+002
7.16000e-001,-6.60587e-003,1.07400e+001,-1.99331e+001,1.07400e+001,8.25508e+001,1.07400e+001,-1.13443e+002
7.17000e-001,-1.02737e-002,1.07550e+001,-2.04559e+001,1.07550e+001,8.35358e+001,1.07550e+001,-1.14024e+002
7.18000e-001,-1.09857e-002,1.07700e+001,-2.17012e+001,1.07700e+001,8.44203e+001,1.07700e+001,-1.15325e+002
7.19000e-001,-1.08014e-002,1.07850e+001,-2.27130e+001,1.07850e+001,8.51682e+001,1.07850e+001,-1.16455e+002
7.20000e-001,-9.08837e-003,1.08000e+001,-2.32230e+001,1.08000e+001,8.55888e+001,1.08000e+001,-1.17052e+002
7.21000e-001,-5.19023e-003,1.08150e+001,-2.31154e+001,1.08150e+001,8.56698e+001,1.08150e+001,-1.17193e+002
7.22000e-001,-1.29915e-003,1.08300e+001,-2.31082e+001,1.08300e+001,8.56712e+001,1.08300e+001,-1.17363e+002
7.23000e-001,2.30591e-003,1.08450e+001,-2.30159e+001,1.08450e+001,8.56740e+001,1.08450e+001,-1.17370e+002
7.24000e-001,5.85156e-003,1.08600e+001,-2.26755e+001,1.08600e+001,8.56573e+001,1.08600e+001,-1.17153e+002
7.25000e-001,9.19612e-003,1.08750e+001,-2.27416e+001,1.08750e+001,8.56457e+001,1.08750e+001,-1.17314e+002
7.26000e-001,1.07726e-002,1.08900e+001,-2.27562e+001,1.08900e+001,8.56246e+001,1.08900e+001,-1.17464e+002
7.27000e-001,1.05581e-002,1.09050e+001,-2.24143e+001,1.09050e+001,8.56067e+001,1.09050e+001,-1.17240e+002
7.28000e-001,8.98698e-003,1.09200e+001,-2.23643e+001,1.09200e+001,8.56061e+001,1.09200e+001,-1.17420e+002
7.29000e-001,5.95428e-003,1.09350e+001,-2.27222e+001,1.09350e+001,8.56029e+001,1.09350e+001,-1.17931e+002
7.30000e-001,2.68525e-003,1.09500e+001,-2.27400e+001,1.09500e+001,8.55953e+001,1.09500e+001,-1.18046e+002
7.31000e-001,-6.12650e-004,1.09650e+001,-2.26283e+001,1.09650e+001,8.55380e+001,1.09650e+001,-1.18111e+002
7.32000e-001,-4.08344e-003,1.09800e+001,-2.26340e+001,1.09800e+001,8.55236e+001,1.09800e+001,-1.18066e+002
7.33000e-001,-8.06918e-003,1.09950e+001,-2.24604e+001,1.09950e+001,8.55095e+001,1.09950e+001,-1.17939e+002
7.34000e-001,-1.09075e-002,1.10100e+001,-2.27305e+001,1.10100e+001,8.55759e+001,1.10100e+001,-1.18316e+002
7.35000e-001,-1.09770e-002,1.10250e+001,-2.24890e+001,1.10250e+001,8.54842e+001,1.10250e+001,-1.18089e+002
7.36000e-001,-1.05698e-002,1.10400e+001,-2.24432e+001,1.10400e+001,8.54329e+001,1.10400e+001,-1.18104e+002
7.37000e-001,-7.88556e-003,1.10550e+001,-2.25750e+001,1.10550e+001,8.54483e+001,1.10550e+001,-1.18241e+002
7.38000e-001,-3.83838e-003,1.10700e+001,-2.26116e+001,1.10700e+001,8.54599e+001,1.10700e+001,-1.18331e+002
7.39000e-001,-5.00191e-005,1.10850e+001,-2.28946e+001,1.10850e+001,8.54799e+001,1.10850e+001,-1.18657e+002
7.40000e-001,3.55673e-003,1.11000e+001,-2.29188e+001,1.11000e+001,8.54748e+001,1.11000e+001,-1.18779e+002
7.41000e-001,7.06880e-003,1.11150e+001,-2.29796e+001,1.11150e+001,8.54672e+001,1.11150e+001,-1.18939e+002
7.42000e-001,1.00384e-002,1.11300e+001,-2.28838e+001,1.11300e+001,8.54580e+001,1.11300e+001,-1.18957e+002
7.43000e-001,1.07796e-002,1.11450e+001,-2.28890e+001,1.11450e+001,8.54376e+001,1.11450e+001,-1.19071e+002
7.44000e-001,1.02774e-002,1.11600e+001,-2.29226e+001,1.11600e+001,8.54198e+001,1.11600e+001,-1.19175e+002
7.45000e-001,8.05374e-003,1.11750e+001,-2.30955e+001,1.11750e+001,8.54165e+001,1.11750e+001,-1.19455e+002
7.46000e-001,4.86595e-003,1.11900e+001,-2.30841e+001,1.11900e+001,8.54014e+001,1.11900e+001,-1.19518e+002
7.47000e-001,1.56973e-003,1.12050e+001,-2.29636e+001,1.12050e+001,8.54005e+001,1.12050e+001,-1.19488e+002
7.48000e-001,-1.81042e-003,1.12200e+001,-2.30262e+001,1.12200e+001,8.54074e+001,1.12200e+001,-1.19689e+002
7.49000e-001,-5.35171e-003,1.12350e+001,-2.30359e+001,1.12350e+001,8.53992e+001,1.12350e+001,-1.19782e+002
7.50000e-001,-9.34148e-003,1.12500e+001,-2.29747e+001,1.12500e+001,8.53935e+001,1.12500e+001,-1.19837e+002
7.51000e-001,-1.09841e-002,1.12650e+001,-2.28785e+001,1.12650e+001,8.53688e+001,1.12650e+001,-1.19823e+002
7.52000e-001,-1.08783e-002,1.12800e+001,-2.27214e+001,1.12800e+001,8.52324e+001,1.12800e+001,-1.19716e+002
7.53000e-001,-9.97562e-003,1.12950e+001,-2.26425e+001,1.12950e+001,8.50364e+001,1.12950e+001,-1.19746e+002
7.54000e-001,-6.47898e-003,1.13100e+001,-2.25128e+001,1.13100e+001,8.49727e+001,1.13100e+001,-1.19708e+002
7.55000e-001,-2.47544e-003,1.13250e+001,-2.24695e+001,1.13250e+001,8.49424e+001,1.13250e+001,-1.19743e+002
7.56000e-001,1.17864e-003,1.13400e+001,-2.25443e+001,1.13400e+001,8.49508e+001,1.13400e+001,-1.19898e+002
7.57000e-001,4.75450e-003,1.13550e+001,-2.24311e+001,1.13550e+001,8.49644e+001,1.13550e+001,-1.20103e+002
7.58000e-001,8.26825e-003,1.13700e+001,-2.23160e+001,1.13700e+001,8.49264e+001,1.13700e+001,-1.20314e+002
7.59000e-001,1.05688e-002,1.13850e+001,-2.17728e+001,1.13850e+001,8.46734e+001,1.13850e+001,-1.20069e+002
7.60000e-001,1.06883e-002,1.14000e+001,-2.15695e+001,1.14000e+001,8.42622e+001,1.14000e+001,-1.20283e+002
7.61000e-001,9.72418e-003,1.14150e+001,-2.10589e+001,1.14150e+001,8.39715e+001,1.14150e+001,-1.19967e+002
7.62000e-001,6.95500e-003,1.14300e+001,-2.06528e+001,1.14300e+001,8.33969e+001,1.14300e+001,-1.19680e+002
7.63000e-001,3.68966e-003,1.14450e+001,-2.01381e+001,1.14450e+001,8.29211e+001,1.14450e+001,-1.19214e+002
7.64000e-001,3.96796e-004,1.14600e+001,-1.99393e+001,1.14600e+001,8.25850e+001,1.14600e+001,-1.19014e+002
7.65000e-001,-3.03035e-003,1.14750e+001,-1.97576e+001,1.14750e+001,8.21707e+001,1.14750e+001,-1.18798e+002
7.66000e-001,-6.74922e-003,1.14900e+001,-1.96936e+001,1.14900e+001,8.18768e+001,1.14900e+001,-1.18694e+002
7.67000e-001,-1.03566e-002,1.15050e+001,-1.94336e+001,1.15050e+001,8.15119e+001,1.15050e+001,-1.18384e+002
7.68000e-001,-1.09864e-002,1.15200e+001,-1.93631e+001,1.15200e+001,8.13808e+001,1.15200e+001,-1.18348e+002
7.69000e-001,-1.07857e-002,1.15350e+001,-1.94714e+001,1.15350e+001,8.13147e+001,1.15350e+001,-1.18539e+002
7.70000e-001,-8.96214e-003,1.15500e+001,-1.94752e+001,1.15500e+001,8.13406e+001,1.15500e+001,-1.18659e+002
7.71000e-001,-5.04656e-003,1.15650e+001,-1.95407e+001,1.15650e+001,8.14210e+001,1.15650e+001,-1.18840e+002
7.72000e-001,-1.15514e-003,1.15800e+001,-1.96344e+001,1.15800e+001,8.15457e+001,1.15800e+001,-1.19092e+002
7.73000e-001,2.45765e-003,1.15950e+001,-1.97607e+001,1.15950e+001,8.16161e+001,1.15950e+001,-1.19304e+002
7.74000e-001,5.98315e-003,1.16100e+001,-1.97548e+001,1.16100e+001,8.16284e+001,1.16100e+001,-1.19479e+002
7.75000e-001,9.28777e-003,1.16250e+001,-1.97485e+001,1.16250e+001,8.16330e+001,1.16250e+001,-1.19578e+002
7.76000e-001,1.07783e-002,1.16400e+001,-1.98586e+001,1.16400e+001,8.16115e+001,1.16400e+001,-1.19786e+002
7.77000e-001,1.05372e-002,1.16550e+001,-1.98302e+001,1.16550e+001,8.16036e+001,1.16550e+001,-1.19901e+002
7.78000e-001,8.90440e-003,1.16700e+001,-2.00133e+001,1.16700e+001,8.17424e+001,1.16700e+001,-1.20165e+002
7.79000e-001,5.84686e-003,1.16850e+001,-2.01567e+001,1.16850e+001,8.20203e+001,1.16850e+001,-1.20415e+002
7.80000e-001,2.56574e-003,1.17000e+001,-2.03176e+001,1.17000e+001,8.22899e+001,1.17000e+001,-1.20647e+002
7.81000e-001,-7.35180e-004,1.17150e+001,-2.05594e+001,1.17150e+001,8.25837e+001,1.17150e+001,-1.20948e+002
7.82000e-001,-4.19858e-003,1.17300e+001,-2.09903e+001,1.17300e+001,8.31490e+001,1.17300e+001,-1.21372e+002
7.83000e-001,-8.17057e-003,1.17450e+001,-2.11697e+001,1.17450e+001,8.33294e+001,1.17450e+001,-1.21608e+002
7.84000e-001,-1.09317e-002,1.17600e+001,-2.14900e+001,1.17600e+001,8.36645e+001,1.17600e+001,-1.21997e+002
7.85000e-001,-1.09656e-002,1.17750e+001,-2.22942e+001,1.17750e+001,8.48035e+001,1.17750e+001,-1.22704e+002
7.86000e-001,-1.05288e-002,1.17900e+001,-2.34749e+001,1.17900e+001,8.53232e+001,1.17900e+001,-1.23719e+002
7.87000e-001,-7.74456e-003,1.18050e+001,-2.54994e+001,1.18050e+001,8.56701e+001,1.18050e+001,-1.25704e+002
7.88000e-001,-3.71316e-003,1.18200e+001,-2.86791e+001,1.18200e+001,8.61357e+001,1.18200e+001,-1.28801e+002
7.89000e-001,4.46479e-005,1.18350e+001,-3.56736e+001,1.18350e+001,8.68353e+001,1.18350e+001,-1.35554e+002
7.90000e-001,3.65139e-003,1.18500e+001,-4.29175e+001,1.18500e+001,8.72690e+001,1.18500e+001,-1.42576e+002
7.91000e-001,7.20912e-003,1.18650e+001,-6.32141e+001,1.18650e+001,8.79166e+001,1.18650e+001,-1.62356e+002
7.92000e-001,1.01190e-002,1.18800e+001,-8.69585e+001,1.18800e+001,8.81582e+001,1.18800e+001,1.74383e+002
7.93000e-001,1.07709e-002,1.18950e+001,-1.15405e+002,1.18950e+001,8.79538e+001,1.18950e+001,1.46415e+002
7.94000e-001,1.02314e-002,1.19100e+001,-1.33503e+002,1.19100e+001,8.74411e+001,1.19100e+001,1.28702e+002
7.95000e-001,7.93658e-003,1.19250e+001,-1.41350e+002,1.19250e+001,8.71003e+001,1.19250e+001,1.21066e+002
7.96000e-001,4.71925e-003,1.19400e+001,-1.47639e+002,1.19400e+001,8.67235e+001,1.19400e+001,1.15045e+002
7.97000e-001,1.41497e-003,1.19550e+001,-1.49859e+002,1.19550e+001,8.65750e+001,1.19550e+001,1.12918e+002
7.98000e-001,-1.94537e-003,1.19700e+001,-1.50490e+002,1.19700e+001,8.64758e+001,1.19700e+001,1.12343e+002
7.99000e-001,-5.48397e-003,1.19850e+001,-1.51800e+002,1.19850e+001,8.63216e+001,1.19850e+001,1.11077e+002
8.00000e-001,-9.45595e-003,1.20000e+001,-1.53669e+002,1.20000e+001,8.60806e+001,1.20000e+001,1.09235e+002
8.01000e-001,-1.09841e-002,1.20150e+001,-1.56989e+002,1.20150e+001,8.56028e+001,1.20150e+001,1.05930e+002
8.02000e-001,-1.08692e-002,1.20300e+001,-1.59312e+002,1.20300e+001,8.52014e+001,1.20300e+001,1.03569e+002
8.03000e-001,-9.87625e-003,1.20450e+001,-1.61788e+002,1.20450e+001,8.47003e+001,1.20450e+001,1.01073e+002
8.04000e-001,-6.31952e-003,1.20600e+001,-1.64199e+002,1.20600e+001,8.41337e+001,1.20600e+001,9.87203e+001
8.05000e-001,-2.33344e-003,1.20750e+001,-1.65983e+002,1.20750e+001,8.36863e+001,1.20750e+001,9.69049e+001
8.06000e-001,1.30889e-003,1.20900e+001,-1.69080e+002,1.20900e+001,8.24678e+001,1.20900e+001,9.38151e+001
8.07000e-001,4.88844e-003,1.21050e+001,-1.70570e+002,1.21050e+001,8.17133e+001,1.21050e+001,9.22888e+001
8.08000e-001,8.36796e-003,1.21200e+001,-1.71830e+002,1.21200e+001,8.05881e+001,1.21200e+001,9.08527e+001
8.09000e-001,1.06051e-002,1.21350e+001,-1.72413e+002,1.21350e+001,7.96769e+001,1.21350e+001,8.96044e+001
8.10000e-001,1.06769e-002,1.21500e+001,-1.73267e+002,1.21500e+001,7.83618e+001,1.21500e+001,8.74690e+001
8.11000e-001,9.63757e-003,1.21650e+001,-1.74315e+002,1.21650e+001,7.72563e+001,1.21650e+001,8.57501e+001
8.12000e-001,6.85530e-003,1.21800e+001,-1.75267e+002,1.21800e+001,7.58990e+001,1.21800e+001,8.41767e+001
8.13000e-001,3.59902e-003,1.21950e+001,-1.76315e+002,1.21950e+001,7.43195e+001,1.21950e+001,8.19565e+001
8.14000e-001,3.07836e-004,1.22100e+001,-1.76947e+002,1.22100e+001,7.27490e+001,1.22100e+001,8.07852e+001
8.15000e-001,-3.13307e-003,1.22250e+001,-1.77454e+002,1.22250e+001,7.09105e+001,1.22250e+001,7.99711e+001
8.16000e-001,-6.89458e-003,1.22400e+001,-1.77451e+002,1.22400e+001,6.90145e+001,1.22400e+001,7.98636e+001
8.17000e-001,-1.04449e-002,1.22550e+001,-1.77777e+002,1.22550e+001,6.77829e+001,1.22550e+001,7.97150e+001
8.18000e-001,-1.09864e-002,1.22700e+001,-1.77767e+002,1.22700e+001,6.66377e+001,1.22700e+001,8.00979e+001
8.19000e-001,-1.07752e-002,1.22850e+001,-1.77972e+002,1.22850e+001,6.47528e+001,1.22850e+001,8.03743e+001
8.20000e-001,-8.87956e-003,1.23000e+001,-1.78340e+002,1.23000e+001,6.22553e+001,1.23000e+001,8.05637e+001
8.21000e-001,-4.93645e-003,1.23150e+001,-1.78302e+002,1.23150e+001,6.06096e+001,1.23150e+001,8.08021e+001
8.22000e-001,-1.05510e-003,1.23300e+001,-1.78471e+002,1.23300e+001,5.87859e+001,1.23300e+001,8.07653e+001
8.23000e-001,2.54426e-003,1.23450e+001,-1.78411e+002,1.23450e+001,5.53480e+001,1.23450e+001,8.05527e+001
8.24000e-001,6.09024e-003,1.23600e+001,-1.78187e+002,1.23600e+001,5.24695e+001,1.23600e+001,8.04207e+001
8.25000e-001,9.39922e-003,1.23750e+001,-1.77975e+002,1.23750e+001,4.83010e+001,1.23750e+001,7.99929e+001
8.26000e-001,1.07877e-002,1.23900e+001,-1.77864e+002,1.23900e+001,4.53262e+001,1.23900e+001,7.95202e+001
8.27000e-001,1.05191e-002,1.24050e+001,-1.77926e+002,1.24050e+001,4.22515e+001,1.24050e+001,7.88072e+001
8.28000e-001,8.81578e-003,1.24200e+001,-1.78142e+002,1.24200e+001,4.00478e+001,1.24200e+001,7.81334e+001
8.29000e-001,5.73977e-003,1.24350e+001,-1.78385e+002,1.24350e+001,3.76661e+001,1.24350e+001,7.73071e+001
8.30000e-001,2.46033e-003,1.24500e+001,-1.78037e+002,1.24500e+001,3.51236e+001,1.24500e+001,7.68278e+001
8.31000e-001,-8.54688e-004,1.24650e+001,-1.77755e+002,1.24650e+001,3.38859e+001,1.24650e+001,7.67423e+001
8.32000e-001,-4.33286e-003,1.24800e+001,-1.77543e+002,1.24800e+001,3.22046e+001,1.24800e+001,7.67961e+001
8.33000e-001,-8.31357e-003,1.24950e+001,-1.77517e+002,1.24950e+001,3.02510e+001,1.24950e+001,7.67273e+001
8.34000e-001,-1.09538e-002,1.25100e+001,-1.77653e+002,1.25100e+001,2.85898e+001,1.25100e+001,7.65942e+001
8.35000e-001,-1.09515e-002,1.25250e+001,-1.77694e+002,1.25250e+001,2.71333e+001,1.25250e+001,7.65787e+001
8.36000e-001,-1.04768e-002,1.25400e+001,-1.77777e+002,1.25400e+001,2.63397e+001,1.25400e+001,7.65627e+001
8.37000e-001,-7.59585e-003,1.25550e+001,-1.77768e+002,1.25550e+001,2.50003e+001,1.25550e+001,7.65725e+001
8.38000e-001,-3.54296e-003,1.25700e+001,-1.77763e+002,1.25700e+001,2.38190e+001,1.25700e+001,7.65811e+001
8.39000e-001,2.27939e-004,1.25850e+001,-1.77641e+002,1.25850e+001,2.23284e+001,1.25850e+001,7.67517e+001
8.40000e-001,3.82898e-003,1.26000e+001,-1.77578e+002,1.26000e+001,2.12851e+001,1.26000e+001,7.68953e+001
8.41000e-001,7.31084e-003,1.26150e+001,-1.77508e+002,1.26150e+001,2.02978e+001,1.26150e+001,7.70799e+001
8.42000e-001,1.01552e-002,1.26300e+001,-1.77274e+002,1.26300e+001,1.91290e+001,1.26300e+001,7.74439e+001
8.43000e-001,1.07628e-002,1.26450e+001,-1.77060e+002,1.26450e+001,1.82269e+001,1.26450e+001,7.76416e+001
8.44000e-001,1.01660e-002,1.26600e+001,-1.76679e+002,1.26600e+001,1.69739e+001,1.26600e+001,7.78155e+001
8.45000e-001,7.80130e-003,1.26750e+001,-1.76479e+002,1.26750e+001,1.60775e+001,1.26750e+001,7.78023e+001
8.46000e-001,4.59538e-003,1.26900e+001,-1.76296e+002,1.26900e+001,1.49505e+001,1.26900e+001,7.77543e+001
8.47000e-001,1.31829e-003,1.27050e+001,-1.76345e+002,1.27050e+001,1.33726e+001,1.27050e+001,7.75971e+001
8.48000e-001,-2.03500e-003,1.27200e+001,-1.76547e+002,1.27200e+001,1.21894e+001,1.27200e+001,7.74136e+001
8.49000e-001,-5.62329e-003,1.27350e+001,-1.76779e+002,1.27350e+001,1.12859e+001,1.27350e+001,7.72213e+001
8.50000e-001,-9.58218e-003,1.27500e+001,-1.76868e+002,1.27500e+001,1.09300e+001,1.27500e+001,7.71026e+001
8.51000e-001,-1.09844e-002,1.27650e+001,-1.77012e+002,1.27650e+001,1.04755e+001,1.27650e+001,7.69026e+001
8.52000e-001,-1.08629e-002,1.27800e+001,-1.77407e+002,1.27800e+001,9.56236e+000,1.27800e+001,7.64944e+001
8.53000e-001,-9.78729e-003,1.27950e+001,-1.77761e+002,1.27950e+001,8.82371e+000,1.27950e+001,7.61747e+001
8.54000e-001,-6.18189e-003,1.28100e+001,-1.78426e+002,1.28100e+001,7.38783e+000,1.28100e+001,7.56044e+001
8.55000e-001,-2.18976e-003,1.28250e+001,-1.79140e+002,1.28250e+001,5.81051e+000,1.28250e+001,7.49521e+001
8.56000e-001,1.47137e-003,1.28400e+001,1.79865e+002,1.28400e+001,3.12490e+000,1.28400e+001,7.40249e+001
8.57000e-001,5.02138e-003,1.28550e+001,1.79168e+002,1.28550e+001,9.67580e-001,1.28550e+001,7.33271e+001
8.58000e-001,8.47941e-003,1.28700e+001,1.79093e+002,1.28700e+001,7.66813e-001,1.28700e+001,7.30741e+001
8.59000e-001,1.06232e-002,1.28850e+001,1.79161e+002,1.28850e+001,7.37651e-001,1.28850e+001,7.27747e+001
8.60000e-001,1.06628e-002,1.29000e+001,1.79217e+002,1.29000e+001,7.23207e-001,1.29000e+001,7.26085e+001
8.61000e-001,9.53887e-003,1.29150e+001,1.79287e+002,1.29150e+001,7.01309e-001,1.29150e+001,7.23790e+001
8.62000e-001,6.72807e-003,1.29300e+001,1.79344e+002,1.29300e+001,6.87979e-001,1.29300e+001,7.22783e+001
8.63000e-001,3.47045e-003,1.29450e+001,1.79398e+002,1.29450e+001,6.77667e-001,1.29450e+001,7.21828e+001
8.64000e-001,1.87655e-004,1.29600e+001,1.79475e+002,1.29600e+001,6.65166e-001,1.29600e+001,7.20159e+001
8.65000e-001,-3.25762e-003,1.29750e+001,1.79540e+002,1.29750e+001,6.59062e-001,1.29750e+001,7.18802e+001
8.66000e-001,-7.03255e-003,1.29900e+001,1.79624e+002,1.29900e+001,6.42986e-001,1.29900e+001,7.17167e+001
8.67000e-001,-1.05107e-002,1.30050e+001,1.79700e+002,1.30050e+001,6.27990e-001,1.30050e+001,7.15960e+001
8.68000e-001,-1.09867e-002,1.30200e+001,1.79805e+002,1.30200e+001,5.94717e-001,1.30200e+001,7.13787e+001
8.69000e-001,-1.07601e-002,1.30350e+001,1.79901e+002,1.30350e+001,5.89025e-001,1.30350e+001,7.11508e+001
8.70000e-001,-8.75636e-003,1.30500e+001,-1.79999e+002,1.30500e+001,5.86899e-001,1.30500e+001,7.08136e+001
8.71000e-001,-4.79579e-003,1.30650e+001,-1.79766e+002,1.30650e+001,5.97575e-001,1.30650e+001,7.03914e+001
8.72000e-001,-9.19478e-004,1.30800e+001,-1.78766e+002,1.30800e+001,5.85778e-001,1.30800e+001,6.99046e+001
8.73000e-001,2.69297e-003,1.30950e+001,-1.75988e+002,1.30950e+001,6.09118e-001,1.30950e+001,6.90307e+001
8.74000e-001,6.22956e-003,1.31100e+001,-1.75690e+002,1.31100e+001,6.38775e-001,1.31100e+001,6.83752e+001
8.75000e-001,9.50262e-003,1.31250e+001,-1.77406e+002,1.31250e+001,8.40269e-001,1.31250e+001,6.77063e+001
8.76000e-001,1.07904e-002,1.31400e+001,-1.78448e+002,1.31400e+001,8.33793e-001,1.31400e+001,6.69011e+001
8.77000e-001,1.04869e-002,1.31550e+001,-1.77653e+002,1.31550e+001,8.50545e-001,1.31550e+001,6.63881e+001
8.78000e-001,8.70634e-003,1.31700e+001,-1.76333e+002,1.31700e+001,8.34641e-001,1.31700e+001,6.58444e+001
8.79000e-001,5.62463e-003,1.31850e+001,-1.76404e+002,1.31850e+001,8.40293e-001,1.31850e+001,6.54416e+001
8.80000e-001,2.34653e-003,1.32000e+001,-1.77336e+002,1.32000e+001,8.36865e-001,1.32000e+001,6.50391e+001
8.81000e-001,-9.53719e-004,1.32150e+001,-1.78243e+002,1.32150e+001,7.89171e-001,1.32150e+001,6.46031e+001
8.82000e-001,-4.43995e-003,1.32300e+001,-1.77700e+002,1.32300e+001,8.05884e-001,1.32300e+001,6.43148e+001
8.83000e-001,-8.45859e-003,1.32450e+001,-1.76521e+002,1.32450e+001,8.44341e-001,1.32450e+001,6.39216e+001
8.84000e-001,-1.09639e-002,1.32600e+001,-1.76486e+002,1.32600e+001,8.35873e-001,1.32600e+001,6.36078e+001
8.85000e-001,-1.09438e-002,1.32750e+001,-1.77559e+002,1.32750e+001,7.98521e-001,1.32750e+001,6.31493e+001
8.86000e-001,-1.04271e-002,1.32900e+001,-1.78081e+002,1.32900e+001,7.53635e-001,1.32900e+001,6.28258e+001
8.87000e-001,-7.44109e-003,1.33050e+001,-1.77623e+002,1.33050e+001,7.71716e-001,1.33050e+001,6.25240e+001
8.88000e-001,-3.38854e-003,1.33200e+001,-1.76600e+002,1.33200e+001,8.00188e-001,1.33200e+001,6.21164e+001
8.89000e-001,3.60204e-004,1.33350e+001,-1.76555e+002,1.33350e+001,7.93122e-001,1.33350e+001,6.17768e+001
8.90000e-001,3.96426e-003,1.33500e+001,-1.77473e+002,1.33500e+001,7.53478e-001,1.33500e+001,6.13247e+001
8.91000e-001,7.45553e-003,1.33650e+001,-1.77936e+002,1.33650e+001,7.34567e-001,1.33650e+001,6.09798e+001
8.92000e-001,1.02311e-002,1.33800e+001,-1.77560e+002,1.33800e+001,7.38552e-001,1.33800e+001,6.06492e+001
8.93000e-001,1.07514e-002,1.33950e+001,-1.76674e+002,1.33950e+001,7.27276e-001,1.33950e+001,6.02387e+001
8.94000e-001,1.00975e-002,1.34100e+001,-1.76671e+002,1.34100e+001,7.26864e-001,1.34100e+001,5.98931e+001
8.95000e-001,7.67575e-003,1.34250e+001,-1.77512e+002,1.34250e+001,7.02209e-001,1.34250e+001,5.94197e+001
8.96000e-001,4.47654e-003,1.34400e+001,-1.77745e+002,1.34400e+001,6.45363e-001,1.34400e+001,5.96127e+001
8.97000e-001,1.19475e-003,1.34550e+001,-1.77725e+002,1.34550e+001,5.61617e-001,1.34550e+001,6.04665e+001
8.98000e-001,-2.18372e-003,1.34700e+001,-1.77731e+002,1.34700e+001,5.19031e-001,1.34700e+001,6.06292e+001
8.99000e-001,-5.76327e-003,1.34850e+001,-1.77625e+002,1.34850e+001,5.21065e-001,1.34850e+001,6.02647e+001
9.00000e-001,-9.68457e-003,1.35000e+001,-1.77551e+002,1.35000e+001,5.17234e-001,1.35000e+001,5.97950e+001
9.01000e-001,-1.09851e-002,1.35150e+001,-1.77554e+002,1.35150e+001,5.34052e-001,1.35150e+001,5.93242e+001
9.02000e-001,-1.08578e-002,1.35300e+001,-1.77563e+002,1.35300e+001,5.17750e-001,1.35300e+001,5.85465e+001
9.03000e-001,-9.71511e-003,1.35450e+001,-1.77737e+002,1.35450e+001,4.83509e-001,1.35450e+001,5.80466e+001
9.04000e-001,-6.05801e-003,1.35600e+001,-1.77843e+002,1.35600e+001,3.98439e-001,1.35600e+001,5.75529e+001
9.05000e-001,-2.08637e-003,1.35750e+001,-1.77942e+002,1.35750e+001,1.06246e-001,1.35750e+001,5.69884e+001
9.06000e-001,1.54925e-003,1.35900e+001,-1.77912e+002,1.35900e+001,-1.55792e-001,1.35900e+001,5.65546e+001
9.07000e-001,5.11705e-003,1.36050e+001,-1.77703e+002,1.36050e+001,-6.29126e-001,1.36050e+001,5.59513e+001
9.08000e-001,8.60026e-003,1.36200e+001,-1.77405e+002,1.36200e+001,-1.15662e+000,1.36200e+001,5.53809e+001
9.09000e-001,1.06635e-002,1.36350e+001,-1.76866e+002,1.36350e+001,-1.96916e+000,1.36350e+001,5.46698e+001
9.10000e-001,1.06494e-002,1.36500e+001,-1.76516e+002,1.36500e+001,-2.64348e+000,1.36500e+001,5.40837e+001
9.11000e-001,9.46032e-003,1.36650e+001,-1.76252e+002,1.36650e+001,-3.23540e+000,1.36650e+001,5.36670e+001
9.12000e-001,6.61897e-003,1.36800e+001,-1.76055e+002,1.36800e+001,-3.88144e+000,1.36800e+001,5.32465e+001
9.13000e-001,3.36135e-003,1.36950e+001,-1.76052e+002,1.36950e+001,-4.43163e+000,1.36950e+001,5.30116e+001
9.14000e-001,7.18395e-005,1.37100e+001,-1.76093e+002,1.37100e+001,-5.10240e+000,1.37100e+001,5.26634e+001
9.15000e-001,-3.37041e-003,1.37250e+001,-1.76046e+002,1.37250e+001,-5.55604e+000,1.37250e+001,5.21251e+001
9.16000e-001,-7.18160e-003,1.37400e+001,-1.75791e+002,1.37400e+001,-5.93684e+000,1.37400e+001,5.15729e+001
9.17000e-001,-1.05765e-002,1.37550e+001,-1.75203e+002,1.37550e+001,-6.42802e+000,1.37550e+001,5.08153e+001
9.18000e-001,-1.09867e-002,1.37700e+001,-1.74849e+002,1.37700e+001,-6.90825e+000,1.37700e+001,5.01879e+001
9.19000e-001,-1.07410e-002,1.37850e+001,-1.74629e+002,1.37850e+001,-7.05816e+000,1.37850e+001,4.94957e+001
9.20000e-001,-8.62342e-003,1.38000e+001,-1.74730e+002,1.38000e+001,-7.06957e+000,1.38000e+001,4.92811e+001
9.21000e-001,-4.64237e-003,1.38150e+001,-1.74989e+002,1.38150e+001,-7.07080e+000,1.38150e+001,4.91778e+001
9.22000e-001,-7.78485e-004,1.38300e+001,-1.75194e+002,1.38300e+001,-7.04786e+000,1.38300e+001,4.90123e+001
9.23000e-001,2.84773e-003,1.38450e+001,-1.75311e+002,1.38450e+001,-7.02774e+000,1.38450e+001,4.88219e+001
9.24000e-001,6.35410e-003,1.38600e+001,-1.75385e+002,1.38600e+001,-7.06683e+000,1.38600e+001,4.84977e+001
9.25000e-001,9.57244e-003,1.38750e+001,-1.75411e+002,1.38750e+001,-7.15805e+000,1.38750e+001,4.81974e+001
9.26000e-001,1.07904e-002,1.38900e+001,-1.75395e+002,1.38900e+001,-7.38416e+000,1.38900e+001,4.74990e+001
9.27000e-001,1.04547e-002,1.39050e+001,-1.75311e+002,1.39050e+001,-7.84612e+000,1.39050e+001,4.68547e+001
9.28000e-001,8.58650e-003,1.39200e+001,-1.75267e+002,1.39200e+001,-8.44621e+000,1.39200e+001,4.61160e+001
9.29000e-001,5.47390e-003,1.39350e+001,-1.75212e+002,1.39350e+001,-1.00314e+001,1.39350e+001,4.50390e+001
9.30000e-001,2.20621e-003,1.39500e+001,-1.75418e+002,1.39500e+001,-1.22066e+001,1.39500e+001,4.42811e+001
9.31000e-001,-1.11351e-003,1.39650e+001,-1.75742e+002,1.39650e+001,-1.67951e+001,1.39650e+001,4.33593e+001
9.32000e-001,-4.57523e-003,1.39800e+001,-1.76023e+002,1.39800e+001,-2.20282e+001,1.39800e+001,4.26092e+001
9.33000e-001,-8.56367e-003,1.39950e+001,-1.76055e+002,1.39950e+001,-2.43499e+001,1.39950e+001,4.19364e+001
9.34000e-001,-1.09703e-002,1.40100e+001,-1.75951e+002,1.40100e+001,-2.54875e+001,1.40100e+001,4.12152e+001
9.35000e-001,-1.09327e-002,1.40250e+001,-1.75902e+002,1.40250e+001,-2.58524e+001,1.40250e+001,4.07737e+001
9.36000e-001,-1.03560e-002,1.40400e+001,-1.76095e+002,1.40400e+001,-2.62237e+001,1.40400e+001,4.02618e+001
9.37000e-001,-7.29741e-003,1.40550e+001,-1.76314e+002,1.40550e+001,-2.63326e+001,1.40550e+001,3.96469e+001
9.38000e-001,-3.26836e-003,1.40700e+001,-1.76602e+002,1.40700e+001,-2.66034e+001,1.40700e+001,3.84271e+001
9.39000e-001,4.40772e-004,1.40850e+001,-1.76666e+002,1.40850e+001,-2.67905e+001,1.40850e+001,3.75186e+001
9.40000e-001,4.04013e-003,1.41000e+001,-1.76673e+002,1.41000e+001,-2.68257e+001,1.41000e+001,3.66513e+001
9.41000e-001,7.57571e-003,1.41150e+001,-1.76616e+002,1.41150e+001,-2.67674e+001,1.41150e+001,3.55876e+001
9.42000e-001,1.02855e-002,1.41300e+001,-1.76447e+002,1.41300e+001,-2.66913e+001,1.41300e+001,3.48343e+001
9.43000e-001,1.07447e-002,1.41450e+001,-1.75829e+002,1.41450e+001,-2.65723e+001,1.41450e+001,3.38399e+001
9.44000e-001,1.00397e-002,1.41600e+001,-1.75154e+002,1.41600e+001,-2.65150e+001,1.41600e+001,3.30283e+001
9.45000e-001,7.56664e-003,1.41750e+001,-1.74672e+002,1.41750e+001,-2.65066e+001,1.41750e+001,3.24208e+001
9.46000e-001,4.34830e-003,1.41900e+001,-1.74552e+002,1.41900e+001,-2.63928e+001,1.41900e+001,3.19470e+001
9.47000e-001,1.06987e-003,1.42050e+001,-1.74503e+002,1.42050e+001,-2.62676e+001,1.42050e+001,3.16601e+001
9.48000e-001,-2.28443e-003,1.42200e+001,-1.74434e+002,1.42200e+001,-2.61056e+001,1.42200e+001,3.13676e+001
9.49000e-001,-5.86667e-003,1.42350e+001,-1.74477e+002,1.42350e+001,-2.59802e+001,1.42350e+001,3.12380e+001
9.50000e-001,-9.75708e-003,1.42500e+001,-1.74552e+002,1.42500e+001,-2.58884e+001,1.42500e+001,3.11170e+001
9.51000e-001,-1.09851e-002,1.42650e+001,-1.74493e+002,1.42650e+001,-2.58222e+001,1.42650e+001,3.07390e+001
9.52000e-001,-1.08478e-002,1.42800e+001,-1.74299e+002,1.42800e+001,-2.58064e+001,1.42800e+001,3.03392e+001
9.53000e-001,-9.60366e-003,1.42950e+001,-1.74125e+002,1.42950e+001,-2.58262e+001,1.42950e+001,2.98286e+001
9.54000e-001,-5.90561e-003,1.43100e+001,-1.74128e+002,1.43100e+001,-2.58484e+001,1.43100e+001,2.94965e+001
9.55000e-001,-1.95142e-003,1.43250e+001,-1.74267e+002,1.43250e+001,-2.58702e+001,1.43250e+001,2.91659e+001
9.56000e-001,1.69897e-003,1.43400e+001,-1.74361e+002,1.43400e+001,-2.58858e+001,1.43400e+001,2.89009e+001
9.57000e-001,5.24596e-003,1.43550e+001,-1.74221e+002,1.43550e+001,-2.59183e+001,1.43550e+001,2.86268e+001
9.58000e-001,8.70097e-003,1.43700e+001,-1.73921e+002,1.43700e+001,-2.59714e+001,1.43700e+001,2.83158e+001
9.59000e-001,1.06853e-002,1.43850e+001,-1.73727e+002,1.43850e+001,-2.60061e+001,1.43850e+001,2.80851e+001
9.60000e-001,1.06339e-002,1.44000e+001,-1.73594e+002,1.44000e+001,-2.60326e+001,1.44000e+001,2.78161e+001
9.61000e-001,9.36263e-003,1.44150e+001,-1.73494e+002,1.44150e+001,-2.60788e+001,1.44150e+001,2.75544e+001
9.62000e-001,6.48603e-003,1.44300e+001,-1.73359e+002,1.44300e+001,-2.61283e+001,1.44300e+001,2.72781e+001
9.63000e-001,3.25661e-003,1.44450e+001,-1.73245e+002,1.44450e+001,-2.61776e+001,1.44450e+001,2.69220e+001
9.64000e-001,-7.72107e-006,1.44600e+001,-1.73264e+002,1.44600e+001,-2.62182e+001,1.44600e+001,2.67404e+001
9.65000e-001,-3.44259e-003,1.44750e+001,-1.73359e+002,1.44750e+001,-2.62532e+001,1.44750e+001,2.65757e+001
9.66000e-001,-7.29406e-003,1.44900e+001,-1.73389e+002,1.44900e+001,-2.62753e+001,1.44900e+001,2.64586e+001
9.67000e-001,-1.06269e-002,1.45050e+001,-1.73328e+002,1.45050e+001,-2.63642e+001,1.45050e+001,2.62418e+001
9.68000e-001,-1.09867e-002,1.45200e+001,-1.73225e+002,1.45200e+001,-2.64769e+001,1.45200e+001,2.60219e+001
9.69000e-001,-1.07178e-002,1.45350e+001,-1.73113e+002,1.45350e+001,-2.65899e+001,1.45350e+001,2.57135e+001
9.70000e-001,-8.49720e-003,1.45500e+001,-1.72950e+002,1.45500e+001,-2.68107e+001,1.45500e+001,2.54292e+001
9.71000e-001,-4.49836e-003,1.45650e+001,-1.72870e+002,1.45650e+001,-2.69827e+001,1.45650e+001,2.52309e+001
9.72000e-001,-6.51591e-004,1.45800e+001,-1.72792e+002,1.45800e+001,-2.71822e+001,1.45800e+001,2.50184e+001
9.73000e-001,2.93233e-003,1.45950e+001,-1.72697e+002,1.45950e+001,-2.73098e+001,1.45950e+001,2.48936e+001
9.74000e-001,6.47529e-003,1.46100e+001,-1.72593e+002,1.46100e+001,-2.74626e+001,1.46100e+001,2.47387e+001
9.75000e-001,9.66174e-003,1.46250e+001,-1.72487e+002,1.46250e+001,-2.78401e+001,1.46250e+001,2.43899e+001
9.76000e-001,1.07914e-002,1.46400e+001,-1.72457e+002,1.46400e+001,-2.81583e+001,1.46400e+001,2.40267e+001
9.77000e-001,1.04023e-002,1.46550e+001,-1.72217e+002,1.46550e+001,-2.84368e+001,1.46550e+001,2.33470e+001
9.78000e-001,8.43980e-003,1.46700e+001,-1.71977e+002,1.46700e+001,-2.85810e+001,1.46700e+001,2.29033e+001
9.79000e-001,5.34298e-003,1.46850e+001,-1.71713e+002,1.46850e+001,-2.86795e+001,1.46850e+001,2.25074e+001
9.80000e-001,2.07529e-003,1.47000e+001,-1.71486e+002,1.47000e+001,-2.87544e+001,1.47000e+001,2.19938e+001
9.81000e-001,-1.25182e-003,1.47150e+001,-1.71343e+002,1.47150e+001,-2.88790e+001,1.47150e+001,2.16902e+001
9.82000e-001,-4.71824e-003,1.47300e+001,-1.71224e+002,1.47300e+001,-2.90498e+001,1.47300e+001,2.14241e+001
9.83000e-001,-8.69560e-003,1.47450e+001,-1.71017e+002,1.47450e+001,-2.91471e+001,1.47450e+001,2.12008e+001
9.84000e-001,-1.09750e-002,1.47600e+001,-1.70638e+002,1.47600e+001,-2.93330e+001,1.47600e+001,2.08220e+001
9.85000e-001,-1.09209e-002,1.47750e+001,-1.70373e+002,1.47750e+001,-2.94847e+001,1.47750e+001,2.05094e+001
9.86000e-001,-1.02929e-002,1.47900e+001,-1.70262e+002,1.47900e+001,-2.96225e+001,1.47900e+001,2.01892e+001
9.87000e-001,-7.13863e-003,1.48050e+001,-1.70314e+002,1.48050e+001,-2.97383e+001,1.48050e+001,1.97517e+001
9.88000e-001,-3.11025e-003,1.48200e+001,-1.70390e+002,1.48200e+001,-2.97967e+001,1.48200e+001,1.93022e+001
9.89000e-001,6.07279e-004,1.48350e+001,-1.70557e+002,1.48350e+001,-3.00096e+001,1.48350e+001,1.86408e+001
9.90000e-001,4.19556e-003,1.48500e+001,-1.70836e+002,1.48500e+001,-3.02297e+001,1.48500e+001,1.82230e+001
9.91000e-001,7.70059e-003,1.48650e+001,-1.71121e+002,1.48650e+001,-3.04429e+001,1.48650e+001,1.78405e+001
9.92000e-001,1.03499e-002,1.48800e+001,-1.71145e+002,1.48800e+001,-3.06396e+001,1.48800e+001,1.71483e+001
9.93000e-001,1.07353e-002,1.48950e+001,-1.71100e+002,1.48950e+001,-3.08301e+001,1.48950e+001,1.65675e+001
9.94000e-001,9.96991e-003,1.49100e+001,-1.71016e+002,1.49100e+001,-3.11128e+001,1.49100e+001,1.58093e+001
9.95000e-001,7.44277e-003,1.49250e+001,-1.71048e+002,1.49250e+001,-3.13142e+001,1.49250e+001,1.53270e+001
9.96000e-001,4.23618e-003,1.49400e+001,-1.71171e+002,1.49400e+001,-3.15729e+001,1.49400e+001,1.47704e+001
9.97000e-001,9.66812e-004,1.49550e+001,-1.71407e+002,1.49550e+001,-3.17890e+001,1.49550e+001,1.43643e+001
9.98000e-001,-2.39319e-003,1.49700e+001,-1.71811e+002,1.49700e+001,-3.20839e+001,1.49700e+001,1.41002e+001
9.99000e-001,-6.02545e-003,1.49850e+001,-1.72296e+002,1.49850e+001,-3.26523e+001,1.49850e+001,1.36922e+001
1.00000e+000,-9.87256e-003,1.50000e+001,-1.72149e+002,1.50000e+001,-3.31568e+001,1.50000e+001,1.31049e+001
1.00100e+000,-1.09851e-002,1.50150e+001,-1.71685e+002,1.50150e+001,-3.38140e+001,1.50150e+001,1.22628e+001
1.00200e+000,-1.08404e-002,1.50300e+001,-1.71429e+002,1.50300e+001,-3.42432e+001,1.50300e+001,1.17194e+001
1.00300e+000,-9.50329e-003,1.50450e+001,-1.71367e+002,1.50450e+001,-3.46755e+001,1.50450e+001,1.12717e+001
1.00400e+000,-5.76193e-003,1.50600e+001,-1.71423e+002,1.50600e+001,-3.53377e+001,1.50600e+001,1.07410e+001
1.00500e+000,-1.80371e-003,1.50750e+001,-1.71346e+002,1.50750e+001,-3.60373e+001,1.50750e+001,1.02228e+001
1.00600e+000,1.83526e-003,1.50900e+001,-1.71373e+002,1.50900e+001,-3.68627e+001,1.50900e+001,9.68594e+000
1.00700e+000,5.38393e-003,1.51050e+001,-1.71404e+002,1.51050e+001,-3.74859e+001,1.51050e+001,9.22390e+000
1.00800e+000,8.80571e-003,1.51200e+001,-1.71276e+002,1.51200e+001,-3.80583e+001,1.51200e+001,8.76941e+000
1.00900e+000,1.07098e-002,1.51350e+001,-1.70900e+002,1.51350e+001,-3.87998e+001,1.51350e+001,8.17021e+000
1.01000e+000,1.06185e-002,1.51500e+001,-1.70684e+002,1.51500e+001,-3.93769e+001,1.51500e+001,7.73742e+000
1.01100e+000,9.26226e-003,1.51650e+001,-1.70466e+002,1.51650e+001,-4.02754e+001,1.51650e+001,7.12297e+000
1.01200e+000,6.33094e-003,1.51800e+001,-1.70274e+002,1.51800e+001,-4.10847e+001,1.51800e+001,6.58563e+000
1.01300e+000,3.08943e-003,1.51950e+001,-1.70030e+002,1.51950e+001,-4.23361e+001,1.51950e+001,5.85008e+000
1.01400e+000,-1.92355e-004,1.52100e+001,-1.69907e+002,1.52100e+001,-4.34026e+001,1.52100e+001,5.47006e+000
1.01500e+000,-3.61950e-003,1.52250e+001,-1.69728e+002,1.52250e+001,-4.44720e+001,1.52250e+001,5.05659e+000
1.01600e+000,-7.44848e-003,1.52400e+001,-1.69059e+002,1.52400e+001,-4.57647e+001,1.52400e+001,4.46864e+000
1.01700e+000,-1.06799e-002,1.52550e+001,-1.68561e+002,1.52550e+001,-4.66001e+001,1.52550e+001,4.02242e+000
1.01800e+000,-1.09864e-002,1.52700e+001,-1.68219e+002,1.52700e+001,-4.75747e+001,1.52700e+001,3.78170e+000
1.01900e+000,-1.06809e-002,1.52850e+001,-1.68161e+002,1.52850e+001,-4.83099e+001,1.52850e+001,3.77272e+000
1.02000e+000,-8.32398e-003,1.53000e+001,-1.68127e+002,1.53000e+001,-4.90275e+001,1.53000e+001,3.74258e+000
1.02100e+000,-4.33655e-003,1.53150e+001,-1.67989e+002,1.53150e+001,-5.00179e+001,1.53150e+001,3.55401e+000
1.02200e+000,-5.17311e-004,1.53300e+001,-1.67893e+002,1.53300e+001,-5.07650e+001,1.53300e+001,3.30311e+000
1.02300e+000,3.08473e-003,1.53450e+001,-1.67850e+002,1.53450e+001,-5.17210e+001,1.53450e+001,2.99610e+000
1.02400e+000,6.58607e-003,1.53600e+001,-1.67773e+002,1.53600e+001,-5.23772e+001,1.53600e+001,2.81651e+000
1.02500e+000,9.71545e-003,1.53750e+001,-1.67704e+002,1.53750e+001,-5.33388e+001,1.53750e+001,2.70136e+000
1.02600e+000,1.07917e-002,1.53900e+001,-1.67628e+002,1.53900e+001,-5.41022e+001,1.53900e+001,2.66733e+000
1.02700e+000,1.03828e-002,1.54050e+001,-1.67696e+002,1.54050e+001,-5.49426e+001,1.54050e+001,2.86290e+000
1.02800e+000,8.35721e-003,1.54200e+001,-1.67986e+002,1.54200e+001,-5.61814e+001,1.54200e+001,3.33541e+000
1.02900e+000,5.23119e-003,1.54350e+001,-1.68354e+002,1.54350e+001,-5.70931e+001,1.54350e+001,3.69748e+000
1.03000e+000,1.96686e-003,1.54500e+001,-1.68603e+002,1.54500e+001,-5.82102e+001,1.54500e+001,3.85724e+000
1.03100e+000,-1.34313e-003,1.54650e+001,-1.68502e+002,1.54650e+001,-5.88867e+001,1.54650e+001,3.78186e+000
1.03200e+000,-4.80922e-003,1.54800e+001,-1.68538e+002,1.54800e+001,-5.95612e+001,1.54800e+001,3.93448e+000
1.03300e+000,-8.80839e-003,1.54950e+001,-1.68708e+002,1.54950e+001,-6.04730e+001,1.54950e+001,4.13150e+000
1.03400e+000,-1.09773e-002,1.55100e+001,-1.68840e+002,1.55100e+001,-6.12355e+001,1.55100e+001,4.13289e+000
1.03500e+000,-1.09129e-002,1.55250e+001,-1.68754e+002,1.55250e+001,-6.22963e+001,1.55250e+001,3.80812e+000
1.03600e+000,-1.02307e-002,1.55400e+001,-1.68694e+002,1.55400e+001,-6.30850e+001,1.55400e+001,3.58289e+000
1.03700e+000,-7.00334e-003,1.55550e+001,-1.68787e+002,1.55550e+001,-6.38566e+001,1.55550e+001,3.42156e+000
1.03800e+000,-2.99544e-003,1.55700e+001,-1.68907e+002,1.55700e+001,-6.48219e+001,1.55700e+001,3.25528e+000
1.03900e+000,6.97581e-004,1.55850e+001,-1.69000e+002,1.55850e+001,-6.55084e+001,1.55850e+001,3.23669e+000
1.04000e+000,4.29090e-003,1.56000e+001,-1.68937e+002,1.56000e+001,-6.64455e+001,1.56000e+001,3.13519e+000
1.04100e+000,7.81204e-003,1.56150e+001,-1.68867e+002,1.56150e+001,-6.72995e+001,1.56150e+001,3.13500e+000
1.04200e+000,1.04117e-002,1.56300e+001,-1.68610e+002,1.56300e+001,-6.85264e+001,1.56300e+001,3.17360e+000
1.04300e+000,1.07272e-002,1.56450e+001,-1.68251e+002,1.56450e+001,-6.95256e+001,1.56450e+001,3.00408e+000
1.04400e+000,9.92694e-003,1.56600e+001,-1.67884e+002,1.56600e+001,-7.05090e+001,1.56600e+001,2.76433e+000
1.04500e+000,7.34743e-003,1.56750e+001,-1.67192e+002,1.56750e+001,-7.16412e+001,1.56750e+001,2.33268e+000
1.04600e+000,4.13513e-003,1.56900e+001,-1.67351e+002,1.56900e+001,-7.24045e+001,1.56900e+001,2.59763e+000
1.04700e+000,8.42939e-004,1.57050e+001,-1.67544e+002,1.57050e+001,-7.34739e+001,1.57050e+001,2.89880e+000
1.04800e+000,-2.56507e-003,1.57200e+001,-1.67523e+002,1.57200e+001,-7.43875e+001,1.57200e+001,3.08375e+000
1.04900e+000,-6.18122e-003,1.57350e+001,-1.67389e+002,1.57350e+001,-7.53855e+001,1.57350e+001,3.10858e+000
1.05000e+000,-9.99341e-003,1.57500e+001,-1.66839e+002,1.57500e+001,-7.67561e+001,1.57500e+001,2.65321e+000
1.05100e+000,-1.09857e-002,1.57650e+001,-1.65963e+002,1.57650e+001,-7.76957e+001,1.57650e+001,1.85655e+000
1.05200e+000,-1.08293e-002,1.57800e+001,-1.64596e+002,1.57800e+001,-7.87726e+001,1.57800e+001,5.93216e-001
1.05300e+000,-9.39821e-003,1.57950e+001,-1.64441e+002,1.57950e+001,-7.94889e+001,1.57950e+001,4.01356e-001
1.05400e+000,-5.60952e-003,1.58100e+001,-1.63562e+002,1.58100e+001,-8.05153e+001,1.58100e+001,-5.14824e-001
1.05500e+000,-1.66641e-003,1.58250e+001,-1.61423e+002,1.58250e+001,-8.13353e+001,1.58250e+001,-2.53705e+000
1.05600e+000,1.94067e-003,1.58400e+001,-1.58380e+002,1.58400e+001,-8.21411e+001,1.58400e+001,-5.30346e+000
1.05700e+000,5.50646e-003,1.58550e+001,-1.52875e+002,1.58550e+001,-8.31204e+001,1.58550e+001,-1.03114e+001
1.05800e+000,8.93462e-003,1.58700e+001,-1.48242e+002,1.58700e+001,-8.37640e+001,1.58700e+001,-1.46090e+001
1.05900e+000,1.07366e-002,1.58850e+001,-1.42340e+002,1.58850e+001,-8.44665e+001,1.58850e+001,-2.00907e+001
1.06000e+000,1.06064e-002,1.59000e+001,-1.38145e+002,1.59000e+001,-8.49375e+001,1.59000e+001,-2.39449e+001
1.06100e+000,9.19982e-003,1.59150e+001,-1.33714e+002,1.59150e+001,-8.53988e+001,1.59150e+001,-2.80494e+001
1.06200e+000,6.24366e-003,1.59300e+001,-1.25944e+002,1.59300e+001,-8.59841e+001,1.59300e+001,-3.52737e+001
1.06300e+000,2.98839e-003,1.59450e+001,-1.18512e+002,1.59450e+001,-8.63392e+001,1.59450e+001,-4.22161e+001
1.06400e+000,-2.76280e-004,1.59600e+001,-1.05095e+002,1.59600e+001,-8.70408e+001,1.59600e+001,-5.50601e+001
1.06500e+000,-3.72659e-003,1.59750e+001,-9.14902e+001,1.59750e+001,-8.72295e+001,1.59750e+001,-6.83823e+001
1.06600e+000,-7.62036e-003,1.59900e+001,-7.42609e+001,1.59900e+001,-8.71553e+001,1.59900e+001,-8.54149e+001
1.06700e+000,-1.07558e-002,1.60050e+001,-6.35968e+001,1.60050e+001,-8.69477e+001,1.60050e+001,-9.60278e+001
1.06800e+000,-1.09871e-002,1.60200e+001,-5.58925e+001,1.60200e+001,-8.66840e+001,1.60200e+001,-1.03627e+002
1.06900e+000,-1.06520e-002,1.60350e+001,-4.93540e+001,1.60350e+001,-8.63889e+001,1.60350e+001,-1.09923e+002
1.07000e+000,-8.19742e-003,1.60500e+001,-4.49406e+001,1.60500e+001,-8.61283e+001,1.60500e+001,-1.13980e+002
1.07100e+000,-4.19120e-003,1.60650e+001,-4.07406e+001,1.60650e+001,-8.58134e+001,1.60650e+001,-1.17602e+002
1.07200e+000,-3.81689e-004,1.60800e+001,-3.70927e+001,1.60800e+001,-8.54783e+001,1.60800e+001,-1.20791e+002
1.07300e+000,3.22975e-003,1.60950e+001,-3.43323e+001,1.60950e+001,-8.51552e+001,1.60950e+001,-1.23201e+002
1.07400e+000,6.72706e-003,1.61100e+001,-3.41168e+001,1.61100e+001,-8.50294e+001,1.61100e+001,-1.22909e+002
1.07500e+000,9.82354e-003,1.61250e+001,-3.29385e+001,1.61250e+001,-8.47273e+001,1.61250e+001,-1.23577e+002
1.07600e+000,1.07904e-002,1.61400e+001,-3.23861e+001,1.61400e+001,-8.45782e+001,1.61400e+001,-1.23773e+002
1.07700e+000,1.03509e-002,1.61550e+001,-3.23710e+001,1.61550e+001,-8.45745e+001,1.61550e+001,-1.23501e+002
1.07800e+000,8.25248e-003,1.61700e+001,-3.23017e+001,1.61700e+001,-8.45804e+001,1.61700e+001,-1.23317e+002
1.07900e+000,5.11571e-003,1.61850e+001,-3.21662e+001,1.61850e+001,-8.45891e+001,1.61850e+001,-1.23124e+002
1.08000e+000,1.85977e-003,1.62000e+001,-3.20021e+001,1.62000e+001,-8.45753e+001,1.62000e+001,-1.23083e+002
1.08100e+000,-1.46264e-003,1.62150e+001,-3.19663e+001,1.62150e+001,-8.45941e+001,1.62150e+001,-1.22836e+002
1.08200e+000,-4.94820e-003,1.62300e+001,-3.17428e+001,1.62300e+001,-8.45053e+001,1.62300e+001,-1.22802e+002
1.08300e+000,-8.96214e-003,1.62450e+001,-3.05095e+001,1.62450e+001,-8.44195e+001,1.62450e+001,-1.23530e+002
1.08400e+000,-1.09807e-002,1.62600e+001,-3.01740e+001,1.62600e+001,-8.45699e+001,1.62600e+001,-1.23580e+002
1.08500e+000,-1.09028e-002,1.62750e+001,-3.07500e+001,1.62750e+001,-8.46849e+001,1.62750e+001,-1.22908e+002
1.08600e+000,-1.01690e-002,1.62900e+001,-3.24875e+001,1.62900e+001,-8.49116e+001,1.62900e+001,-1.21260e+002
1.08700e+000,-6.89055e-003,1.63050e+001,-3.31905e+001,1.63050e+001,-8.50328e+001,1.63050e+001,-1.20527e+002
1.08800e+000,-2.86317e-003,1.63200e+001,-3.24780e+001,1.63200e+001,-8.46587e+001,1.63200e+001,-1.21583e+002
1.08900e+000,8.13397e-004,1.63350e+001,-3.18456e+001,1.63350e+001,-8.44753e+001,1.63350e+001,-1.22083e+002
1.09000e+000,4.40201e-003,1.63500e+001,-3.15490e+001,1.63500e+001,-8.43592e+001,1.63500e+001,-1.22200e+002
1.09100e+000,7.91812e-003,1.63650e+001,-3.03680e+001,1.63650e+001,-8.39785e+001,1.63650e+001,-1.23031e+002
1.09200e+000,1.04466e-002,1.63800e+001,-2.96542e+001,1.63800e+001,-8.36992e+001,1.63800e+001,-1.23662e+002
1.09300e+000,1.07199e-002,1.63950e+001,-3.05523e+001,1.63950e+001,-8.41321e+001,1.63950e+001,-1.23799e+002
1.09400e+000,9.86249e-003,1.64100e+001,-3.31910e+001,1.64100e+001,-8.49476e+001,1.64100e+001,-1.22280e+002
1.09500e+000,7.22591e-003,1.64250e+001,-3.36813e+001,1.64250e+001,-8.48272e+001,1.64250e+001,-1.22643e+002
1.09600e+000,4.00723e-003,1.64400e+001,-3.15362e+001,1.64400e+001,-8.41114e+001,1.64400e+001,-1.24665e+002
1.09700e+000,7.26116e-004,1.64550e+001,-3.05864e+001,1.64550e+001,-8.36488e+001,1.64550e+001,-1.25368e+002
1.09800e+000,-2.67854e-003,1.64700e+001,-2.97126e+001,1.64700e+001,-8.31471e+001,1.64700e+001,-1.25796e+002
1.09900e+000,-6.30744e-003,1.64850e+001,-2.93634e+001,1.64850e+001,-8.29683e+001,1.64850e+001,-1.25814e+002
