# Label: Avanti Sensor 1: EMG 1 Sampling frequency: 1.000000e+003 Number of points: 29220 X start: 0.000000e+000 Unit: V Domain Unit: s
# Label: Avanti Sensor 1: Quat 1.W Sampling frequency: 6.666667e+001 Number of points: 1948 X start: 0.000000e+000 Unit: Orientation Domain Unit: s
# Label: Avanti Sensor 1: Quat 1.X Sampling frequency: 6.666667e+001 Number of points: 1948 X start: 0.000000e+000 Unit: Orientation Domain Unit: s
# Label: Avanti Sensor 1: Quat 1.Y Sampling frequency: 6.666667e+001 Number of points: 1948 X start: 0.000000e+000 Unit: Orientation Domain Unit: s
# Label: Avanti Sensor 1: Quat 1.Z Sampling frequency: 6.666667e+001 Number of points: 1948 X start: 0.000000e+000 Unit: Orientation Domain Unit: s
# Label: Avanti Sensor 1: Quat 1.Accuracy Sampling frequency: 6.666667e+001 Number of points: 1948 X start: 0.000000e+000 Unit: OrientationAccuracy Domain Unit: s
# Start Trigger Method: None
# Stop Trigger Method: None
# Use Camera: NO
# Video File Path: 
# System Gain: 1.500000e+002
# A/D card Gain: 1.000000e+000
# Bit Resolution: -1.000000e+000
# Bias: 0.000000e+000
# High pass cutoff frequency: 0.000000e+000
# Low pass cutoff frequency: 0.000000e+000
# System Gain: 1.000000e+000
# A/D card Gain: 1.000000e+000
# Bit Resolution: -1.000000e+000
# Bias: 0.000000e+000
# High pass cutoff frequency: 0.000000e+000
# Low pass cutoff frequency: 0.000000e+000
# System Gain: 1.000000e+000
# A/D card Gain: 1.000000e+000
# Bit Resolution: -1.000000e+000
# Bias: 0.000000e+000
# High pass cutoff frequency: 0.000000e+000
# Low pass cutoff frequency: 0.000000e+000
# System Gain: 1.000000e+000
# A/D card Gain: 1.000000e+000
# Bit Resolution: -1.000000e+000
# Bias: 0.000000e+000
# High pass cutoff frequency: 0.000000e+000
# Low pass cutoff frequency: 0.000000e+000
# System Gain: 1.000000e+000
# A/D card Gain: 1.000000e+000
# Bit Resolution: -1.000000e+000
# Bias: 0.000000e+000
# High pass cutoff frequency: 0.000000e+000
# Low pass cutoff frequency: 0.000000e+000
# System Gain: 1.000000e+000
# A/D card Gain: 1.000000e+000
# Bit Resolution: -1.000000e+000
# Bias: 0.000000e+000
# High pass cutoff frequency: 0.000000e+000
# Low pass cutoff frequency: 0.000000e+000
X [s],Avanti Sensor 1: EMG 1 [V],X [s],Avanti Sensor 1: Quat 1.W [Orientation],X [s],Avanti Sensor 1: Quat 1.X [Orientation],X [s],Avanti Sensor 1: Quat 1.Y [Orientation],X [s],Avanti Sensor 1: Quat 1.Z [Orientation],X [s],Avanti Sensor 1: Quat 1.Accuracy [OrientationAccuracy]
0.00000e+000,-3.09178e-004,0.00000e+000,6.90190e-001,0.00000e+000,-1.35616e-002,0.00000e+000,8.08694e-003,0.00000e+000,-7.23455e-001,0.00000e+000,4.10156e-002
1.00000e-003,3.14382e-003,1.50000e-002,6.90181e-001,1.50000e-002,-1.35482e-002,1.50000e-002,8.11523e-003,1.50000e-002,-7.23464e-001,1.50000e-002,4.10156e-002
2.00000e-003,6.48804e-003,3.00000e-002,6.90227e-001,3.00000e-002,-1.35532e-002,3.00000e-002,8.12169e-003,3.00000e-002,-7.23419e-001,3.00000e-002,4.10156e-002
3.00000e-003,9.70269e-003,4.50000e-002,6.90217e-001,4.50000e-002,-1.35495e-002,4.50000e-002,8.12757e-003,4.50000e-002,-7.23429e-001,4.50000e-002,4.10156e-002
4.00000e-003,1.08024e-002,6.00000e-002,6.90144e-001,6.00000e-002,-1.35579e-002,6.00000e-002,8.13598e-003,6.00000e-002,-7.23499e-001,6.00000e-002,4.10156e-002
5.00000e-003,1.04063e-002,7.50000e-002,6.90117e-001,7.50000e-002,-1.35476e-002,7.50000e-002,8.13115e-003,7.50000e-002,-7.23525e-001,7.50000e-002,4.10156e-002
6.00000e-003,8.32197e-003,9.00000e-002,6.90131e-001,9.00000e-002,-1.35591e-002,9.00000e-002,8.11422e-003,9.00000e-002,-7.23511e-001,9.00000e-002,4.10156e-002
7.00000e-003,5.07677e-003,1.05000e-001,6.90157e-001,1.05000e-001,-1.35791e-002,1.05000e-001,8.14049e-003,1.05000e-001,-7.23486e-001,1.05000e-001,4.10156e-002
8.00000e-003,1.73153e-003,1.20000e-001,6.90179e-001,1.20000e-001,-1.35659e-002,1.20000e-001,8.08322e-003,1.20000e-001,-7.23465e-001,1.20000e-001,4.10156e-002
9.00000e-003,-1.53716e-003,1.35000e-001,6.89968e-001,1.35000e-001,-1.35740e-002,1.35000e-001,8.08149e-003,1.35000e-001,-7.23667e-001,1.35000e-001,4.10156e-002
1.00000e-002,-4.84446e-003,1.50000e-001,6.89880e-001,1.50000e-001,-1.35634e-002,1.50000e-001,8.10211e-003,1.50000e-001,-7.23750e-001,1.50000e-001,4.10156e-002
1.10000e-002,-8.66606e-003,1.65000e-001,6.89763e-001,1.65000e-001,-1.35248e-002,1.65000e-001,8.12369e-003,1.65000e-001,-7.23862e-001,1.65000e-001,4.10156e-002
1.20000e-002,-1.09750e-002,1.80000e-001,6.89809e-001,1.80000e-001,-1.35195e-002,1.80000e-001,8.15293e-003,1.80000e-001,-7.23818e-001,1.80000e-001,4.10156e-002
1.30000e-002,-1.08944e-002,1.95000e-001,6.89742e-001,1.95000e-001,-1.35345e-002,1.95000e-001,8.12230e-003,1.95000e-001,-7.23882e-001,1.95000e-001,4.10156e-002
1.40000e-002,-1.01680e-002,2.10000e-001,6.89809e-001,2.10000e-001,-1.35306e-002,2.10000e-001,8.13760e-003,2.10000e-001,-7.23818e-001,2.10000e-001,4.10156e-002
1.50000e-002,-6.86940e-003,2.25000e-001,6.89800e-001,2.25000e-001,-1.34979e-002,2.25000e-001,8.11695e-003,2.25000e-001,-7.23828e-001,2.25000e-001,4.10156e-002
1.60000e-002,-2.81147e-003,2.40000e-001,6.89712e-001,2.40000e-001,-1.34914e-002,2.40000e-001,8.16003e-003,2.40000e-001,-7.23912e-001,2.40000e-001,4.10156e-002
1.70000e-002,9.04707e-004,2.55000e-001,6.89695e-001,2.55000e-001,-1.34812e-002,2.55000e-001,8.20138e-003,2.55000e-001,-7.23927e-001,2.55000e-001,4.10156e-002
1.80000e-002,4.32010e-003,2.70000e-001,6.89782e-001,2.70000e-001,-1.34495e-002,2.70000e-001,8.18759e-003,2.70000e-001,-7.23845e-001,2.70000e-001,4.10156e-002
1.90000e-002,7.64285e-003,2.85000e-001,6.89882e-001,2.85000e-001,-1.34903e-002,2.85000e-001,8.17423e-003,2.85000e-001,-7.23750e-001,2.85000e-001,4.10156e-002
2.00000e-002,1.03660e-002,3.00000e-001,6.89963e-001,3.00000e-001,-1.34949e-002,3.00000e-001,8.15323e-003,3.00000e-001,-7.23673e-001,3.00000e-001,4.10156e-002
2.10000e-002,1.07353e-002,3.15000e-001,6.90022e-001,3.15000e-001,-1.34545e-002,3.15000e-001,8.13655e-003,3.15000e-001,-7.23617e-001,3.15000e-001,4.10156e-002
2.20000e-002,9.94372e-003,3.30000e-001,6.90057e-001,3.30000e-001,-1.34797e-002,3.30000e-001,8.09688e-003,3.30000e-001,-7.23583e-001,3.30000e-001,4.10156e-002
2.30000e-002,7.24337e-003,3.45000e-001,6.89951e-001,3.45000e-001,-1.34464e-002,3.45000e-001,8.11546e-003,3.45000e-001,-7.23685e-001,3.45000e-001,4.10156e-002
2.40000e-002,3.91727e-003,3.60000e-001,6.89970e-001,3.60000e-001,-1.34332e-002,3.60000e-001,8.12335e-003,3.60000e-001,-7.23667e-001,3.60000e-001,4.10156e-002
2.50000e-002,5.99893e-004,3.75000e-001,6.89970e-001,3.75000e-001,-1.34330e-002,3.75000e-001,8.11335e-003,3.75000e-001,-7.23667e-001,3.75000e-001,4.10156e-002
2.60000e-002,-2.65202e-003,3.90000e-001,6.90019e-001,3.90000e-001,-1.34182e-002,3.90000e-001,8.12510e-003,3.90000e-001,-7.23620e-001,3.90000e-001,4.10156e-002
2.70000e-002,-5.98584e-003,4.05000e-001,6.89906e-001,4.05000e-001,-1.33978e-002,4.05000e-001,8.05819e-003,4.05000e-001,-7.23729e-001,4.05000e-001,4.10156e-002
2.80000e-002,-9.80508e-003,4.20000e-001,6.89882e-001,4.20000e-001,-1.34174e-002,4.20000e-001,8.03453e-003,4.20000e-001,-7.23753e-001,4.20000e-001,4.10156e-002
2.90000e-002,-1.09851e-002,4.35000e-001,6.89848e-001,4.35000e-001,-1.33996e-002,4.35000e-001,8.02488e-003,4.35000e-001,-7.23785e-001,4.35000e-001,4.10156e-002
3.00000e-002,-1.08108e-002,4.50000e-001,6.89912e-001,4.50000e-001,-1.34367e-002,4.50000e-001,7.96268e-003,4.50000e-001,-7.23724e-001,4.50000e-001,4.10156e-002
3.10000e-002,-9.31362e-003,4.65000e-001,6.89960e-001,4.65000e-001,-1.34479e-002,4.65000e-001,7.94689e-003,4.65000e-001,-7.23678e-001,4.65000e-001,4.10156e-002
3.20000e-002,-5.48968e-003,4.80000e-001,6.90067e-001,4.80000e-001,-1.34318e-002,4.80000e-001,7.95472e-003,4.80000e-001,-7.23576e-001,4.80000e-001,4.10156e-002
3.30000e-002,-1.50661e-003,4.95000e-001,6.90152e-001,4.95000e-001,-1.33705e-002,4.95000e-001,7.95177e-003,4.95000e-001,-7.23497e-001,4.95000e-001,4.10156e-002
3.40000e-002,2.04977e-003,5.10000e-001,6.90305e-001,5.10000e-001,-1.34253e-002,5.10000e-001,7.96462e-003,5.10000e-001,-7.23349e-001,5.10000e-001,4.10156e-002
3.50000e-002,5.40642e-003,5.25000e-001,6.90515e-001,5.25000e-001,-1.34149e-002,5.25000e-001,7.90599e-003,5.25000e-001,-7.23150e-001,5.25000e-001,4.10156e-002
3.60000e-002,8.74998e-003,5.40000e-001,6.90540e-001,5.40000e-001,-1.34234e-002,5.40000e-001,7.88117e-003,5.40000e-001,-7.23126e-001,5.40000e-001,4.10156e-002
3.70000e-002,1.07205e-002,5.55000e-001,6.90567e-001,5.55000e-001,-1.34285e-002,5.55000e-001,7.90169e-003,5.55000e-001,-7.23100e-001,5.55000e-001,4.10156e-002
3.80000e-002,1.06185e-002,5.70000e-001,6.90513e-001,5.70000e-001,-1.33819e-002,5.70000e-001,7.89636e-003,5.70000e-001,-7.23152e-001,5.70000e-001,4.10156e-002
3.90000e-002,9.20183e-003,5.85000e-001,6.90541e-001,5.85000e-001,-1.34179e-002,5.85000e-001,7.91391e-003,5.85000e-001,-7.23125e-001,5.85000e-001,4.10156e-002
4.00000e-002,6.14832e-003,6.00000e-001,6.90474e-001,6.00000e-001,-1.34077e-002,6.00000e-001,7.92485e-003,6.00000e-001,-7.23189e-001,6.00000e-001,4.10156e-002
4.10000e-002,2.79771e-003,6.15000e-001,6.90519e-001,6.15000e-001,-1.34112e-002,6.15000e-001,7.94668e-003,6.15000e-001,-7.23146e-001,6.15000e-001,4.10156e-002
4.20000e-002,-4.65950e-004,6.30000e-001,6.90872e-001,6.30000e-001,-1.34209e-002,6.30000e-001,7.88718e-003,6.30000e-001,-7.22809e-001,6.30000e-001,4.10156e-002
4.30000e-002,-3.76150e-003,6.45000e-001,6.90917e-001,6.45000e-001,-1.34200e-002,6.45000e-001,7.85997e-003,6.45000e-001,-7.22766e-001,6.45000e-001,4.10156e-002
4.40000e-002,-7.34710e-003,6.60000e-001,6.91054e-001,6.60000e-001,-1.34395e-002,6.60000e-001,7.83117e-003,6.60000e-001,-7.22635e-001,6.60000e-001,4.10156e-002
4.50000e-002,-1.06527e-002,6.75000e-001,6.90997e-001,6.75000e-001,-1.34804e-002,6.75000e-001,7.84765e-003,6.75000e-001,-7.22688e-001,6.75000e-001,4.10156e-002
4.60000e-002,-1.09867e-002,6.90000e-001,6.91113e-001,6.90000e-001,-1.34831e-002,6.90000e-001,7.83460e-003,6.90000e-001,-7.22578e-001,6.90000e-001,4.10156e-002
4.70000e-002,-1.06332e-002,7.05000e-001,6.91244e-001,7.05000e-001,-1.35017e-002,7.05000e-001,7.83372e-003,7.05000e-001,-7.22452e-001,7.05000e-001,4.10156e-002
4.80000e-002,-8.15412e-003,7.20000e-001,6.91382e-001,7.20000e-001,-1.35017e-002,7.20000e-001,7.82228e-003,7.20000e-001,-7.22321e-001,7.20000e-001,4.10156e-002
4.90000e-002,-4.11466e-003,7.35000e-001,6.91374e-001,7.35000e-001,-1.35126e-002,7.35000e-001,7.84731e-003,7.35000e-001,-7.22328e-001,7.35000e-001,4.10156e-002
5.00000e-002,-2.45060e-004,7.50000e-001,6.91292e-001,7.50000e-001,-1.35046e-002,7.50000e-001,7.85275e-003,7.50000e-001,-7.22406e-001,7.50000e-001,4.10156e-002
5.10000e-002,3.23043e-003,7.65000e-001,6.91454e-001,7.65000e-001,-1.34962e-002,7.65000e-001,7.85190e-003,7.65000e-001,-7.22251e-001,7.65000e-001,4.10156e-002
5.20000e-002,6.51893e-003,7.80000e-001,6.91512e-001,7.80000e-001,-1.34755e-002,7.80000e-001,7.82421e-003,7.80000e-001,-7.22197e-001,7.80000e-001,4.10156e-002
5.30000e-002,9.70336e-003,7.95000e-001,6.91614e-001,7.95000e-001,-1.34663e-002,7.95000e-001,7.82990e-003,7.95000e-001,-7.22099e-001,7.95000e-001,4.10156e-002
5.40000e-002,1.07954e-002,8.10000e-001,6.91678e-001,8.10000e-001,-1.35107e-002,8.10000e-001,7.85946e-003,8.10000e-001,-7.22036e-001,8.10000e-001,4.10156e-002
5.50000e-002,1.03848e-002,8.25000e-001,6.91679e-001,8.25000e-001,-1.35081e-002,8.25000e-001,7.85120e-003,8.25000e-001,-7.22036e-001,8.25000e-001,4.10156e-002
5.60000e-002,8.26322e-003,8.40000e-001,6.91658e-001,8.40000e-001,-1.34983e-002,8.40000e-001,7.80552e-003,8.40000e-001,-7.22056e-001,8.40000e-001,4.10156e-002
5.70000e-002,5.03279e-003,8.55000e-001,6.91601e-001,8.55000e-001,-1.34760e-002,8.55000e-001,7.77539e-003,8.55000e-001,-7.22111e-001,8.55000e-001,4.10156e-002
5.80000e-002,1.68722e-003,8.70000e-001,6.91630e-001,8.70000e-001,-1.34823e-002,8.70000e-001,7.81770e-003,8.70000e-001,-7.22084e-001,8.70000e-001,4.10156e-002
5.90000e-002,-1.56939e-003,8.85000e-001,6.91463e-001,8.85000e-001,-1.34571e-002,8.85000e-001,7.78804e-003,8.85000e-001,-7.22244e-001,8.85000e-001,4.10156e-002
6.00000e-002,-4.83842e-003,9.00000e-001,6.91378e-001,9.00000e-001,-1.34578e-002,9.00000e-001,7.80415e-003,9.00000e-001,-7.22326e-001,9.00000e-001,4.10156e-002
6.10000e-002,-8.66975e-003,9.15000e-001,6.91363e-001,9.15000e-001,-1.34509e-002,9.15000e-001,7.79249e-003,9.15000e-001,-7.22340e-001,9.15000e-001,4.10156e-002
6.20000e-002,-1.09743e-002,9.30000e-001,6.91242e-001,9.30000e-001,-1.34379e-002,9.30000e-001,7.81371e-003,9.30000e-001,-7.22456e-001,9.30000e-001,4.10156e-002
6.30000e-002,-1.08944e-002,9.45000e-001,6.91172e-001,9.45000e-001,-1.34334e-002,9.45000e-001,7.79780e-003,9.45000e-001,-7.22523e-001,9.45000e-001,4.10156e-002
6.40000e-002,-1.01572e-002,9.60000e-001,6.91151e-001,9.60000e-001,-1.34626e-002,9.60000e-001,7.80580e-003,9.60000e-001,-7.22542e-001,9.60000e-001,4.10156e-002
6.50000e-002,-6.85899e-003,9.75000e-001,6.91214e-001,9.75000e-001,-1.34773e-002,9.75000e-001,7.84775e-003,9.75000e-001,-7.22481e-001,9.75000e-001,4.10156e-002
6.60000e-002,-2.79503e-003,9.90000e-001,6.91064e-001,9.90000e-001,-1.35011e-002,9.90000e-001,7.84909e-003,9.90000e-001,-7.22624e-001,9.90000e-001,4.10156e-002
6.70000e-002,8.96651e-004,1.00500e+000,6.91030e-001,1.00500e+000,-1.35106e-002,1.00500e+000,7.85424e-003,1.00500e+000,-7.22656e-001,1.00500e+000,4.10156e-002
6.80000e-002,4.30533e-003,1.02000e+000,6.91101e-001,1.02000e+000,-1.35015e-002,1.02000e+000,7.86499e-003,1.02000e+000,-7.22589e-001,1.02000e+000,4.10156e-002
6.90000e-002,7.66836e-003,1.03500e+000,6.91052e-001,1.03500e+000,-1.35135e-002,1.03500e+000,7.89042e-003,1.03500e+000,-7.22635e-001,1.03500e+000,4.10156e-002
7.00000e-002,1.03936e-002,1.05000e+000,6.90862e-001,1.05000e+000,-1.35119e-002,1.05000e+000,7.94005e-003,1.05000e+000,-7.22816e-001,1.05000e+000,4.10156e-002
7.10000e-002,1.07326e-002,1.06500e+000,6.90601e-001,1.06500e+000,-1.34668e-002,1.06500e+000,7.95342e-003,1.06500e+000,-7.23066e-001,1.06500e+000,4.10156e-002
7.20000e-002,9.92526e-003,1.08000e+000,6.88909e-001,1.08000e+000,-1.37868e-002,1.08000e+000,7.57403e-003,1.08000e+000,-7.24677e-001,1.08000e+000,4.10156e-002
7.30000e-002,7.24437e-003,1.09500e+000,6.85373e-001,1.09500e+000,-1.40214e-002,1.09500e+000,7.50457e-003,1.09500e+000,-7.28017e-001,1.09500e+000,4.10156e-002
7.40000e-002,3.92868e-003,1.11000e+000,6.81363e-001,1.11000e+000,-1.42461e-002,1.11000e+000,7.52554e-003,1.11000e+000,-7.31764e-001,1.11000e+000,4.10156e-002
7.50000e-002,6.09293e-004,1.12500e+000,6.79098e-001,1.12500e+000,-1.38843e-002,1.12500e+000,7.28244e-003,1.12500e+000,-7.33875e-001,1.12500e+000,4.10156e-002
7.60000e-002,-2.68962e-003,1.14000e+000,6.77971e-001,1.14000e+000,-1.29072e-002,1.14000e+000,7.04047e-003,1.14000e+000,-7.34936e-001,1.14000e+000,4.10156e-002
7.70000e-002,-6.04526e-003,1.15500e+000,6.78055e-001,1.15500e+000,-1.30139e-002,1.15500e+000,7.07259e-003,1.15500e+000,-7.34856e-001,1.15500e+000,4.10156e-002
7.80000e-002,-9.83966e-003,1.17000e+000,6.78336e-001,1.17000e+000,-1.30382e-002,1.17000e+000,7.05373e-003,1.17000e+000,-7.34596e-001,1.17000e+000,4.10156e-002
7.90000e-002,-1.09854e-002,1.18500e+000,6.78527e-001,1.18500e+000,-1.31974e-002,1.18500e+000,7.05941e-003,1.18500e+000,-7.34418e-001,1.18500e+000,4.10156e-002
8.00000e-002,-1.08088e-002,1.20000e+000,6.78641e-001,1.20000e+000,-1.31944e-002,1.20000e+000,7.03746e-003,1.20000e+000,-7.34312e-001,1.20000e+000,4.10156e-002
8.10000e-002,-9.29784e-003,1.21500e+000,6.78980e-001,1.21500e+000,-1.31398e-002,1.21500e+000,6.99886e-003,1.21500e+000,-7.34000e-001,1.21500e+000,4.10156e-002
8.20000e-002,-5.45476e-003,1.23000e+000,6.79251e-001,1.23000e+000,-1.31295e-002,1.23000e+000,7.00545e-003,1.23000e+000,-7.33750e-001,1.23000e+000,4.10156e-002
8.30000e-002,-1.45794e-003,1.24500e+000,6.79545e-001,1.24500e+000,-1.31703e-002,1.24500e+000,6.99476e-003,1.24500e+000,-7.33478e-001,1.24500e+000,4.10156e-002
8.40000e-002,2.10349e-003,1.26000e+000,6.79554e-001,1.26000e+000,-1.32009e-002,1.26000e+000,7.00827e-003,1.26000e+000,-7.33468e-001,1.26000e+000,4.10156e-002
8.50000e-002,5.44167e-003,1.27500e+000,6.79765e-001,1.27500e+000,-1.32228e-002,1.27500e+000,6.99713e-003,1.27500e+000,-7.33272e-001,1.27500e+000,4.10156e-002
8.60000e-002,8.77482e-003,1.29000e+000,6.79901e-001,1.29000e+000,-1.32044e-002,1.29000e+000,6.97121e-003,1.29000e+000,-7.33147e-001,1.29000e+000,4.10156e-002
8.70000e-002,1.07259e-002,1.30500e+000,6.79976e-001,1.30500e+000,-1.32190e-002,1.30500e+000,6.98720e-003,1.30500e+000,-7.33078e-001,1.30500e+000,4.10156e-002
8.80000e-002,1.06124e-002,1.32000e+000,6.79957e-001,1.32000e+000,-1.32034e-002,1.32000e+000,6.99206e-003,1.32000e+000,-7.33095e-001,1.32000e+000,4.10156e-002
8.90000e-002,9.15483e-003,1.33500e+000,6.80046e-001,1.33500e+000,-1.31842e-002,1.33500e+000,7.02326e-003,1.33500e+000,-7.33013e-001,1.33500e+000,4.10156e-002
9.00000e-002,6.09863e-003,1.35000e+000,6.80174e-001,1.35000e+000,-1.31670e-002,1.35000e+000,6.99828e-003,1.35000e+000,-7.32895e-001,1.35000e+000,4.10156e-002
9.10000e-002,2.76582e-003,1.36500e+000,6.80466e-001,1.36500e+000,-1.31574e-002,1.36500e+000,6.96322e-003,1.36500e+000,-7.32624e-001,1.36500e+000,4.10156e-002
9.20000e-002,-4.95827e-004,1.38000e+000,6.80651e-001,1.38000e+000,-1.31546e-002,1.38000e+000,6.98556e-003,1.38000e+000,-7.32452e-001,1.38000e+000,4.10156e-002
9.30000e-002,-3.76016e-003,1.39500e+000,6.80833e-001,1.39500e+000,-1.31344e-002,1.39500e+000,6.95481e-003,1.39500e+000,-7.32284e-001,1.39500e+000,4.10156e-002
9.40000e-002,-7.34911e-003,1.41000e+000,6.80975e-001,1.41000e+000,-1.31400e-002,1.41000e+000,6.95843e-003,1.41000e+000,-7.32152e-001,1.41000e+000,4.10156e-002
9.50000e-002,-1.06430e-002,1.42500e+000,6.81192e-001,1.42500e+000,-1.31743e-002,1.42500e+000,6.97802e-003,1.42500e+000,-7.31949e-001,1.42500e+000,4.10156e-002
9.60000e-002,-1.09867e-002,1.44000e+000,6.81225e-001,1.44000e+000,-1.31647e-002,1.44000e+000,7.00030e-003,1.44000e+000,-7.31918e-001,1.44000e+000,4.10156e-002
9.70000e-002,-1.06279e-002,1.45500e+000,6.81234e-001,1.45500e+000,-1.31972e-002,1.45500e+000,6.97072e-003,1.45500e+000,-7.31910e-001,1.45500e+000,4.10156e-002
9.80000e-002,-8.14371e-003,1.47000e+000,6.81328e-001,1.47000e+000,-1.31440e-002,1.47000e+000,6.90446e-003,1.47000e+000,-7.31824e-001,1.47000e+000,4.10156e-002
9.90000e-002,-4.10727e-003,1.48500e+000,6.81462e-001,1.48500e+000,-1.31329e-002,1.48500e+000,6.91323e-003,1.48500e+000,-7.31699e-001,1.48500e+000,4.10156e-002
1.00000e-001,-2.49424e-004,1.50000e+000,6.81564e-001,1.50000e+000,-1.31290e-002,1.50000e+000,6.86015e-003,1.50000e+000,-7.31605e-001,1.50000e+000,4.10156e-002
1.01000e-001,3.23580e-003,1.51500e+000,6.81684e-001,1.51500e+000,-1.31173e-002,1.51500e+000,6.86429e-003,1.51500e+000,-7.31494e-001,1.51500e+000,4.10156e-002
1.02000e-001,6.54914e-003,1.53000e+000,6.81620e-001,1.53000e+000,-1.30768e-002,1.53000e+000,6.84690e-003,1.53000e+000,-7.31554e-001,1.53000e+000,4.10156e-002
1.03000e-001,9.72686e-003,1.54500e+000,6.81982e-001,1.54500e+000,-1.30945e-002,1.54500e+000,6.85205e-003,1.54500e+000,-7.31216e-001,1.54500e+000,4.10156e-002
1.04000e-001,1.08011e-002,1.56000e+000,6.82151e-001,1.56000e+000,-1.31205e-002,1.56000e+000,6.86321e-003,1.56000e+000,-7.31058e-001,1.56000e+000,4.10156e-002
1.05000e-001,1.03738e-002,1.57500e+000,6.82148e-001,1.57500e+000,-1.31459e-002,1.57500e+000,6.90484e-003,1.57500e+000,-7.31060e-001,1.57500e+000,4.10156e-002
1.06000e-001,8.23032e-003,1.59000e+000,6.82263e-001,1.59000e+000,-1.31718e-002,1.59000e+000,6.93152e-003,1.59000e+000,-7.30953e-001,1.59000e+000,4.10156e-002
1.07000e-001,4.98814e-003,1.60500e+000,6.82306e-001,1.60500e+000,-1.31807e-002,1.60500e+000,6.92124e-003,1.60500e+000,-7.30912e-001,1.60500e+000,4.10156e-002
1.08000e-001,1.65936e-003,1.62000e+000,6.82365e-001,1.62000e+000,-1.31711e-002,1.62000e+000,6.93014e-003,1.62000e+000,-7.30857e-001,1.62000e+000,4.10156e-002
1.09000e-001,-1.58416e-003,1.63500e+000,6.82479e-001,1.63500e+000,-1.31839e-002,1.63500e+000,6.93041e-003,1.63500e+000,-7.30751e-001,1.63500e+000,4.10156e-002
1.10000e-001,-4.86192e-003,1.65000e+000,6.82620e-001,1.65000e+000,-1.31194e-002,1.65000e+000,6.92543e-003,1.65000e+000,-7.30620e-001,1.65000e+000,4.10156e-002
1.11000e-001,-8.70164e-003,1.66500e+000,6.82652e-001,1.66500e+000,-1.30850e-002,1.66500e+000,6.93594e-003,1.66500e+000,-7.30591e-001,1.66500e+000,4.10156e-002
1.12000e-001,-1.09753e-002,1.68000e+000,6.82988e-001,1.68000e+000,-1.30607e-002,1.68000e+000,6.90673e-003,1.68000e+000,-7.30277e-001,1.68000e+000,4.10156e-002
1.13000e-001,-1.08921e-002,1.69500e+000,6.83135e-001,1.69500e+000,-1.30453e-002,1.69500e+000,6.94782e-003,1.69500e+000,-7.30140e-001,1.69500e+000,4.10156e-002
1.14000e-001,-1.01267e-002,1.71000e+000,6.83322e-001,1.71000e+000,-1.30191e-002,1.71000e+000,6.96249e-003,1.71000e+000,-7.29965e-001,1.71000e+000,4.10156e-002
1.15000e-001,-6.82005e-003,1.72500e+000,6.83659e-001,1.72500e+000,-1.30517e-002,1.72500e+000,6.98488e-003,1.72500e+000,-7.29649e-001,1.72500e+000,4.10156e-002
1.16000e-001,-2.76448e-003,1.74000e+000,6.83682e-001,1.74000e+000,-1.30410e-002,1.74000e+000,6.98913e-003,1.74000e+000,-7.29628e-001,1.74000e+000,4.10156e-002
1.17000e-001,9.51034e-004,1.75500e+000,6.83788e-001,1.75500e+000,-1.29876e-002,1.75500e+000,6.96728e-003,1.75500e+000,-7.29530e-001,1.75500e+000,4.10156e-002
1.18000e-001,4.35837e-003,1.77000e+000,6.83695e-001,1.77000e+000,-1.29896e-002,1.77000e+000,7.00335e-003,1.77000e+000,-7.29616e-001,1.77000e+000,4.10156e-002
1.19000e-001,7.70864e-003,1.78500e+000,6.83856e-001,1.78500e+000,-1.29748e-002,1.78500e+000,6.99194e-003,1.78500e+000,-7.29466e-001,1.78500e+000,4.10156e-002
1.20000e-001,1.03922e-002,1.80000e+000,6.84077e-001,1.80000e+000,-1.29160e-002,1.80000e+000,6.96378e-003,1.80000e+000,-7.29260e-001,1.80000e+000,4.10156e-002
1.21000e-001,1.07313e-002,1.81500e+000,6.84175e-001,1.81500e+000,-1.29011e-002,1.81500e+000,6.98948e-003,1.81500e+000,-7.29168e-001,1.81500e+000,4.10156e-002
1.22000e-001,9.88531e-003,1.83000e+000,6.84150e-001,1.83000e+000,-1.29424e-002,1.83000e+000,6.99554e-003,1.83000e+000,-7.29191e-001,1.83000e+000,4.10156e-002
1.23000e-001,7.18495e-003,1.84500e+000,6.84162e-001,1.84500e+000,-1.29286e-002,1.84500e+000,6.95542e-003,1.84500e+000,-7.29180e-001,1.84500e+000,4.10156e-002
1.24000e-001,3.87228e-003,1.86000e+000,6.84303e-001,1.86000e+000,-1.29340e-002,1.86000e+000,6.95205e-003,1.86000e+000,-7.29048e-001,1.86000e+000,4.10156e-002
1.25000e-001,5.67666e-004,1.87500e+000,6.84349e-001,1.87500e+000,-1.28932e-002,1.87500e+000,6.95965e-003,1.87500e+000,-7.29006e-001,1.87500e+000,4.10156e-002
1.26000e-001,-2.68760e-003,1.89000e+000,6.84345e-001,1.89000e+000,-1.28618e-002,1.89000e+000,7.01336e-003,1.89000e+000,-7.29009e-001,1.89000e+000,4.10156e-002
1.27000e-001,-6.04056e-003,1.90500e+000,6.84378e-001,1.90500e+000,-1.28444e-002,1.90500e+000,7.02817e-003,1.90500e+000,-7.28978e-001,1.90500e+000,4.10156e-002
1.28000e-001,-9.83597e-003,1.92000e+000,6.84492e-001,1.92000e+000,-1.28654e-002,1.92000e+000,7.07539e-003,1.92000e+000,-7.28871e-001,1.92000e+000,4.10156e-002
1.29000e-001,-1.09854e-002,1.93500e+000,6.84641e-001,1.93500e+000,-1.28855e-002,1.93500e+000,7.06626e-003,1.93500e+000,-7.28730e-001,1.93500e+000,4.10156e-002
1.30000e-001,-1.08065e-002,1.95000e+000,6.84758e-001,1.95000e+000,-1.28871e-002,1.95000e+000,7.06973e-003,1.95000e+000,-7.28620e-001,1.95000e+000,4.10156e-002
1.31000e-001,-9.26427e-003,1.96500e+000,6.84969e-001,1.96500e+000,-1.28997e-002,1.96500e+000,7.03764e-003,1.96500e+000,-7.28422e-001,1.96500e+000,4.10156e-002
1.32000e-001,-5.43227e-003,1.98000e+000,6.85046e-001,1.98000e+000,-1.28761e-002,1.98000e+000,7.06399e-003,1.98000e+000,-7.28350e-001,1.98000e+000,4.10156e-002
1.33000e-001,-1.46868e-003,1.99500e+000,6.85193e-001,1.99500e+000,-1.29027e-002,1.99500e+000,7.05961e-003,1.99500e+000,-7.28211e-001,1.99500e+000,4.10156e-002
1.34000e-001,2.09644e-003,2.01000e+000,6.86235e-001,2.01000e+000,-1.40405e-002,2.01000e+000,7.57047e-003,2.01000e+000,-7.27203e-001,2.01000e+000,4.10156e-002
1.35000e-001,5.45275e-003,2.02500e+000,6.91432e-001,2.02500e+000,-1.46145e-002,2.02500e+000,7.95627e-003,2.02500e+000,-7.22249e-001,2.02500e+000,4.10156e-002
1.36000e-001,8.81242e-003,2.04000e+000,7.00453e-001,2.04000e+000,-2.10827e-002,2.04000e+000,1.49925e-002,2.04000e+000,-7.13229e-001,2.04000e+000,4.10156e-002
1.37000e-001,1.07366e-002,2.05500e+000,7.03610e-001,2.05500e+000,-2.13970e-002,2.05500e+000,1.57729e-002,2.05500e+000,-7.10064e-001,2.05500e+000,4.10156e-002
1.38000e-001,1.06074e-002,2.07000e+000,7.04313e-001,2.07000e+000,-2.14181e-002,2.07000e+000,1.55329e-002,2.07000e+000,-7.09381e-001,2.07000e+000,4.10156e-002
1.39000e-001,9.11388e-003,2.08500e+000,7.04711e-001,2.08500e+000,-2.06915e-002,2.08500e+000,1.48225e-002,2.08500e+000,-7.09026e-001,2.08500e+000,4.10156e-002
1.40000e-001,6.06775e-003,2.10000e+000,7.04917e-001,2.10000e+000,-2.11840e-002,2.10000e+000,1.54551e-002,2.10000e+000,-7.08795e-001,2.10000e+000,4.10156e-002
1.41000e-001,2.75776e-003,2.11500e+000,7.05208e-001,2.11500e+000,-2.27029e-002,2.11500e+000,1.69656e-002,2.11500e+000,-7.08427e-001,2.11500e+000,4.10156e-002
1.42000e-001,-5.20333e-004,2.13000e+000,7.05522e-001,2.13000e+000,-2.48963e-002,2.13000e+000,1.90378e-002,2.13000e+000,-7.07990e-001,2.13000e+000,4.10156e-002
1.43000e-001,-3.79406e-003,2.14500e+000,7.05321e-001,2.14500e+000,-2.73641e-002,2.14500e+000,2.14035e-002,2.14500e+000,-7.08030e-001,2.14500e+000,4.10156e-002
1.44000e-001,-7.38738e-003,2.16000e+000,7.04825e-001,2.16000e+000,-3.06628e-002,2.16000e+000,2.48254e-002,2.16000e+000,-7.08272e-001,2.16000e+000,4.10156e-002
1.45000e-001,-1.06484e-002,2.17500e+000,7.04780e-001,2.17500e+000,-3.29214e-002,2.17500e+000,2.69726e-002,2.17500e+000,-7.08137e-001,2.17500e+000,4.10156e-002
1.46000e-001,-1.09867e-002,2.19000e+000,7.05587e-001,2.19000e+000,-3.57460e-002,2.19000e+000,3.00090e-002,2.19000e+000,-7.07080e-001,2.19000e+000,4.10156e-002
1.47000e-001,-1.06131e-002,2.20500e+000,7.06626e-001,2.20500e+000,-3.81573e-002,2.20500e+000,3.24455e-002,2.20500e+000,-7.05812e-001,2.20500e+000,4.10156e-002
1.48000e-001,-8.08127e-003,2.22000e+000,7.09022e-001,2.22000e+000,-4.30494e-002,2.22000e+000,3.74179e-002,2.22000e+000,-7.02868e-001,2.22000e+000,4.10156e-002
1.49000e-001,-4.04416e-003,2.23500e+000,7.09684e-001,2.23500e+000,-4.21794e-002,2.23500e+000,3.82848e-002,2.23500e+000,-7.02199e-001,2.23500e+000,4.10156e-002
1.50000e-001,-1.93027e-004,2.25000e+000,7.09197e-001,2.25000e+000,-4.20338e-002,2.25000e+000,3.94127e-002,2.25000e+000,-7.02642e-001,2.25000e+000,4.10156e-002
1.51000e-001,3.27037e-003,2.26500e+000,7.08081e-001,2.26500e+000,-4.48576e-002,2.26500e+000,4.27873e-002,2.26500e+000,-7.03403e-001,2.26500e+000,4.10156e-002
1.52000e-001,6.56526e-003,2.28000e+000,7.08177e-001,2.28000e+000,-4.88545e-002,2.28000e+000,4.69544e-002,2.28000e+000,-7.02774e-001,2.28000e+000,4.10156e-002
1.53000e-001,9.72149e-003,2.29500e+000,7.08873e-001,2.29500e+000,-5.68239e-002,2.29500e+000,5.50095e-002,2.29500e+000,-7.00881e-001,2.29500e+000,4.10156e-002
1.54000e-001,1.07964e-002,2.31000e+000,7.09922e-001,2.31000e+000,-6.60559e-002,2.31000e+000,6.32847e-002,2.31000e+000,-6.98296e-001,2.31000e+000,4.10156e-002
1.55000e-001,1.03472e-002,2.32500e+000,7.11306e-001,2.32500e+000,-7.76959e-002,2.32500e+000,7.48715e-002,2.32500e+000,-6.94551e-001,2.32500e+000,4.10156e-002
1.56000e-001,8.15848e-003,2.34000e+000,7.11712e-001,2.34000e+000,-9.61984e-002,2.34000e+000,9.06025e-002,2.34000e+000,-6.89929e-001,2.34000e+000,4.10156e-002
1.57000e-001,4.93443e-003,2.35500e+000,7.11263e-001,2.35500e+000,-1.07325e-001,2.35500e+000,1.03166e-001,2.35500e+000,-6.86981e-001,2.35500e+000,4.15039e-002
1.58000e-001,1.62713e-003,2.37000e+000,7.11127e-001,2.37000e+000,-1.21613e-001,2.37000e+000,1.15777e-001,2.37000e+000,-6.82718e-001,2.37000e+000,4.21143e-002
1.59000e-001,-1.57812e-003,2.38500e+000,7.11815e-001,2.38500e+000,-1.32262e-001,2.38500e+000,1.24036e-001,2.38500e+000,-6.78558e-001,2.38500e+000,4.21143e-002
1.60000e-001,-4.86226e-003,2.40000e+000,7.13192e-001,2.40000e+000,-1.43564e-001,2.40000e+000,1.33358e-001,2.40000e+000,-6.73024e-001,2.40000e+000,4.21143e-002
1.61000e-001,-8.70332e-003,2.41500e+000,7.14795e-001,2.41500e+000,-1.61262e-001,2.41500e+000,1.46585e-001,2.41500e+000,-6.64511e-001,2.41500e+000,4.21143e-002
1.62000e-001,-1.09743e-002,2.43000e+000,7.13552e-001,2.43000e+000,-1.76774e-001,2.43000e+000,1.59684e-001,2.43000e+000,-6.58860e-001,2.43000e+000,4.26025e-002
1.63000e-001,-1.08904e-002,2.44500e+000,7.02888e-001,2.44500e+000,-2.01534e-001,2.44500e+000,1.84957e-001,2.44500e+000,-6.56600e-001,2.44500e+000,4.34570e-002
1.64000e-001,-1.01176e-002,2.46000e+000,6.92392e-001,2.46000e+000,-2.21669e-001,2.46000e+000,2.09290e-001,2.46000e+000,-6.53952e-001,2.46000e+000,4.34570e-002
1.65000e-001,-6.79118e-003,2.47500e+000,6.78710e-001,2.47500e+000,-2.49667e-001,2.47500e+000,2.40042e-001,2.47500e+000,-6.47604e-001,2.47500e+000,4.60205e-002
1.66000e-001,-2.73628e-003,2.49000e+000,6.70348e-001,2.49000e+000,-2.67914e-001,2.49000e+000,2.57488e-001,2.49000e+000,-6.42305e-001,2.49000e+000,4.60205e-002
1.67000e-001,1.00340e-003,2.50500e+000,6.63330e-001,2.50500e+000,-2.81290e-001,2.50500e+000,2.76050e-001,2.50500e+000,-6.36133e-001,2.50500e+000,4.60205e-002
1.68000e-001,4.40671e-003,2.52000e+000,6.57880e-001,2.52000e+000,-3.01367e-001,2.52000e+000,2.91182e-001,2.52000e+000,-6.25767e-001,2.52000e+000,4.78516e-002
1.69000e-001,7.71939e-003,2.53500e+000,6.56101e-001,2.53500e+000,-3.15305e-001,2.53500e+000,3.01220e-001,2.53500e+000,-6.15938e-001,2.53500e+000,4.78516e-002
1.70000e-001,1.04030e-002,2.55000e+000,6.57902e-001,2.55000e+000,-3.31951e-001,2.55000e+000,3.09824e-001,2.55000e+000,-6.00818e-001,2.55000e+000,4.78516e-002
1.71000e-001,1.07272e-002,2.56500e+000,6.61224e-001,2.56500e+000,-3.42908e-001,2.56500e+000,3.10479e-001,2.56500e+000,-5.90593e-001,2.56500e+000,4.78516e-002
1.72000e-001,9.85846e-003,2.58000e+000,6.64361e-001,2.58000e+000,-3.52785e-001,2.58000e+000,3.11271e-001,2.58000e+000,-5.80756e-001,2.58000e+000,4.78516e-002
1.73000e-001,7.14064e-003,2.59500e+000,6.65720e-001,2.59500e+000,-3.67346e-001,2.59500e+000,3.11964e-001,2.59500e+000,-5.69694e-001,2.59500e+000,4.80957e-002
1.74000e-001,3.84106e-003,2.61000e+000,6.61216e-001,2.61000e+000,-3.79098e-001,2.61000e+000,3.22874e-001,2.61000e+000,-5.61097e-001,2.61000e+000,4.80957e-002
1.75000e-001,5.41817e-004,2.62500e+000,6.49770e-001,2.62500e+000,-3.98973e-001,2.62500e+000,3.48552e-001,2.62500e+000,-5.45097e-001,2.62500e+000,4.80957e-002
1.76000e-001,-2.70741e-003,2.64000e+000,6.40897e-001,2.64000e+000,-4.21223e-001,2.64000e+000,3.60800e-001,2.64000e+000,-5.30703e-001,2.64000e+000,4.93164e-002
1.77000e-001,-6.09863e-003,2.65500e+000,6.28850e-001,2.65500e+000,-4.46904e-001,2.65500e+000,3.79141e-001,2.65500e+000,-5.10957e-001,2.65500e+000,4.96826e-002
1.78000e-001,-9.88397e-003,2.67000e+000,6.02018e-001,2.67000e+000,-4.88316e-001,2.67000e+000,4.05852e-001,2.67000e+000,-4.84152e-001,2.67000e+000,5.09033e-002
1.79000e-001,-1.09854e-002,2.68500e+000,5.73077e-001,2.68500e+000,-5.03545e-001,2.68500e+000,4.32708e-001,2.68500e+000,-4.80402e-001,2.68500e+000,5.12695e-002
1.80000e-001,-1.08031e-002,2.70000e+000,5.30413e-001,2.70000e+000,-5.15961e-001,2.70000e+000,4.67834e-001,2.70000e+000,-4.83299e-001,2.70000e+000,5.38330e-002
1.81000e-001,-9.23473e-003,2.71500e+000,5.20280e-001,2.71500e+000,-5.20161e-001,2.71500e+000,4.73576e-001,2.71500e+000,-4.84213e-001,2.71500e+000,5.46875e-002
1.82000e-001,-5.39568e-003,2.73000e+000,5.26231e-001,2.73000e+000,-5.21204e-001,2.73000e+000,4.66564e-001,2.73000e+000,-4.83472e-001,2.73000e+000,5.46875e-002
1.83000e-001,-1.41128e-003,2.74500e+000,5.32181e-001,2.74500e+000,-5.17982e-001,2.74500e+000,4.62312e-001,2.74500e+000,-4.84506e-001,2.74500e+000,5.46875e-002
1.84000e-001,2.14343e-003,2.76000e+000,5.29073e-001,2.76000e+000,-5.14518e-001,2.76000e+000,4.66529e-001,2.76000e+000,-4.87548e-001,2.76000e+000,5.46875e-002
1.85000e-001,5.48028e-003,2.77500e+000,5.29917e-001,2.77500e+000,-5.13773e-001,2.77500e+000,4.65003e-001,2.77500e+000,-4.88874e-001,2.77500e+000,5.46875e-002
1.86000e-001,8.80168e-003,2.79000e+000,5.33684e-001,2.79000e+000,-5.18265e-001,2.79000e+000,4.62024e-001,2.79000e+000,-4.82821e-001,2.79000e+000,5.46875e-002
1.87000e-001,1.07232e-002,2.80500e+000,5.39739e-001,2.80500e+000,-5.23408e-001,2.80500e+000,4.55777e-001,2.80500e+000,-4.76439e-001,2.80500e+000,5.46875e-002
1.88000e-001,1.06067e-002,2.82000e+000,5.44517e-001,2.82000e+000,-5.27106e-001,2.82000e+000,4.50303e-001,2.82000e+000,-4.72110e-001,2.82000e+000,5.46875e-002
1.89000e-001,9.10246e-003,2.83500e+000,5.49831e-001,2.83500e+000,-5.30034e-001,2.83500e+000,4.44652e-001,2.83500e+000,-4.68011e-001,2.83500e+000,5.46875e-002
1.90000e-001,6.03955e-003,2.85000e+000,5.54063e-001,2.85000e+000,-5.31328e-001,2.85000e+000,4.40495e-001,2.85000e+000,-4.65477e-001,2.85000e+000,5.46875e-002
1.91000e-001,2.73158e-003,2.86500e+000,5.55799e-001,2.86500e+000,-5.35430e-001,2.86500e+000,4.38352e-001,2.86500e+000,-4.60706e-001,2.86500e+000,5.46875e-002
1.92000e-001,-5.31746e-004,2.88000e+000,5.58939e-001,2.88000e+000,-5.40532e-001,2.88000e+000,4.34553e-001,2.88000e+000,-4.54506e-001,2.88000e+000,5.46875e-002
1.93000e-001,-3.79373e-003,2.89500e+000,5.61843e-001,2.89500e+000,-5.42560e-001,2.89500e+000,4.31810e-001,2.89500e+000,-4.51111e-001,2.89500e+000,5.46875e-002
1.94000e-001,-7.40249e-003,2.91000e+000,5.65088e-001,2.91000e+000,-5.44607e-001,2.91000e+000,4.28876e-001,2.91000e+000,-4.47373e-001,2.91000e+000,5.46875e-002
1.95000e-001,-1.06708e-002,2.92500e+000,5.67286e-001,2.92500e+000,-5.46078e-001,2.92500e+000,4.26916e-001,2.92500e+000,-4.44665e-001,2.92500e+000,5.46875e-002
1.96000e-001,-1.09871e-002,2.94000e+000,5.69283e-001,2.94000e+000,-5.47252e-001,2.94000e+000,4.25231e-001,2.94000e+000,-4.42277e-001,2.94000e+000,5.46875e-002
1.97000e-001,-1.06061e-002,2.95500e+000,5.72191e-001,2.95500e+000,-5.50137e-001,2.95500e+000,4.21481e-001,2.95500e+000,-4.38518e-001,2.95500e+000,5.46875e-002
1.98000e-001,-8.07456e-003,2.97000e+000,5.74094e-001,2.97000e+000,-5.52630e-001,2.97000e+000,4.18440e-001,2.97000e+000,-4.35800e-001,2.97000e+000,5.46875e-002
1.99000e-001,-4.05960e-003,2.98500e+000,5.78049e-001,2.98500e+000,-5.55912e-001,2.98500e+000,4.13884e-001,2.98500e+000,-4.30717e-001,2.98500e+000,5.37109e-002
2.00000e-001,-2.08133e-004,3.00000e+000,5.80840e-001,3.00000e+000,-5.58176e-001,3.00000e+000,4.10626e-001,3.00000e+000,-4.27136e-001,3.00000e+000,5.22461e-002
2.01000e-001,3.25930e-003,3.01500e+000,5.84099e-001,3.01500e+000,-5.60001e-001,3.01500e+000,4.07717e-001,3.01500e+000,-4.23067e-001,3.01500e+000,5.22461e-002
2.02000e-001,6.58103e-003,3.03000e+000,5.87006e-001,3.03000e+000,-5.62240e-001,3.03000e+000,4.04325e-001,3.03000e+000,-4.19309e-001,3.03000e+000,5.22461e-002
2.03000e-001,9.77353e-003,3.04500e+000,5.88170e-001,3.04500e+000,-5.63497e-001,3.04500e+000,4.02466e-001,3.04500e+000,-4.17774e-001,3.04500e+000,5.22461e-002
2.04000e-001,1.08038e-002,3.06000e+000,5.88473e-001,3.06000e+000,-5.64547e-001,3.06000e+000,4.01043e-001,3.06000e+000,-4.17297e-001,3.06000e+000,5.22461e-002
2.05000e-001,1.03607e-002,3.07500e+000,5.89060e-001,3.07500e+000,-5.65146e-001,3.07500e+000,4.00293e-001,3.07500e+000,-4.16388e-001,3.07500e+000,5.22461e-002
2.06000e-001,8.19071e-003,3.09000e+000,5.90125e-001,3.09000e+000,-5.66584e-001,3.09000e+000,3.98758e-001,3.09000e+000,-4.14393e-001,3.09000e+000,5.22461e-002
2.07000e-001,4.95625e-003,3.10500e+000,5.91307e-001,3.10500e+000,-5.67333e-001,3.10500e+000,3.96940e-001,3.10500e+000,-4.13429e-001,3.10500e+000,5.22461e-002
2.08000e-001,1.62176e-003,3.12000e+000,5.92461e-001,3.12000e+000,-5.68402e-001,3.12000e+000,3.94970e-001,3.12000e+000,-4.12193e-001,3.12000e+000,5.22461e-002
2.09000e-001,-1.62310e-003,3.13500e+000,5.93798e-001,3.13500e+000,-5.69730e-001,3.13500e+000,3.92655e-001,3.13500e+000,-4.10645e-001,3.13500e+000,5.22461e-002
2.10000e-001,-4.90892e-003,3.15000e+000,5.94864e-001,3.15000e+000,-5.70736e-001,3.15000e+000,3.90936e-001,3.15000e+000,-4.09345e-001,3.15000e+000,5.22461e-002
2.11000e-001,-8.75367e-003,3.16500e+000,5.96452e-001,3.16500e+000,-5.72368e-001,3.16500e+000,3.88353e-001,3.16500e+000,-4.07207e-001,3.16500e+000,5.22461e-002
2.12000e-001,-1.09760e-002,3.18000e+000,5.97781e-001,3.18000e+000,-5.73621e-001,3.18000e+000,3.86411e-001,3.18000e+000,-4.05340e-001,3.18000e+000,5.22461e-002
2.13000e-001,-1.08874e-002,3.19500e+000,5.99104e-001,3.19500e+000,-5.74803e-001,3.19500e+000,3.84515e-001,3.19500e+000,-4.03511e-001,3.19500e+000,5.22461e-002
2.14000e-001,-1.00874e-002,3.21000e+000,6.00815e-001,3.21000e+000,-5.76390e-001,3.21000e+000,3.81980e-001,3.21000e+000,-4.01105e-001,3.21000e+000,5.22461e-002
2.15000e-001,-6.74788e-003,3.22500e+000,6.01933e-001,3.22500e+000,-5.77480e-001,3.22500e+000,3.80283e-001,3.22500e+000,-3.99470e-001,3.22500e+000,5.22461e-002
2.16000e-001,-2.71345e-003,3.24000e+000,6.03209e-001,3.24000e+000,-5.78744e-001,3.24000e+000,3.78206e-001,3.24000e+000,-3.97684e-001,3.24000e+000,5.22461e-002
2.17000e-001,9.66812e-004,3.25500e+000,6.04263e-001,3.25500e+000,-5.79798e-001,3.25500e+000,3.76541e-001,3.25500e+000,-3.96125e-001,3.25500e+000,5.22461e-002
2.18000e-001,4.38993e-003,3.27000e+000,6.05206e-001,3.27000e+000,-5.80799e-001,3.27000e+000,3.74941e-001,3.27000e+000,-3.94735e-001,3.27000e+000,5.22461e-002
2.19000e-001,7.73248e-003,3.28500e+000,6.06737e-001,3.28500e+000,-5.82138e-001,3.28500e+000,3.72699e-001,3.28500e+000,-3.92530e-001,3.28500e+000,5.22461e-002
2.20000e-001,1.04345e-002,3.30000e+000,6.07896e-001,3.30000e+000,-5.83258e-001,3.30000e+000,3.70718e-001,3.30000e+000,-3.90947e-001,3.30000e+000,5.22461e-002
2.21000e-001,1.07283e-002,3.31500e+000,6.09547e-001,3.31500e+000,-5.84551e-001,3.31500e+000,3.68387e-001,3.31500e+000,-3.88642e-001,3.31500e+000,5.22461e-002
2.22000e-001,9.86920e-003,3.33000e+000,6.10986e-001,3.33000e+000,-5.84913e-001,3.33000e+000,3.67428e-001,3.33000e+000,-3.86741e-001,3.33000e+000,5.22461e-002
2.23000e-001,7.13124e-003,3.34500e+000,6.13265e-001,3.34500e+000,-5.85309e-001,3.34500e+000,3.66394e-001,3.34500e+000,-3.83502e-001,3.34500e+000,5.22461e-002
2.24000e-001,3.81421e-003,3.36000e+000,6.14916e-001,3.36000e+000,-5.85523e-001,3.36000e+000,3.65794e-001,3.36000e+000,-3.81097e-001,3.36000e+000,5.22461e-002
2.25000e-001,5.01869e-004,3.37500e+000,6.16681e-001,3.37500e+000,-5.85645e-001,3.37500e+000,3.65344e-001,3.37500e+000,-3.78481e-001,3.37500e+000,5.22461e-002
2.26000e-001,-2.75273e-003,3.39000e+000,6.19176e-001,3.39000e+000,-5.85570e-001,3.39000e+000,3.65149e-001,3.39000e+000,-3.74692e-001,3.39000e+000,4.79736e-002
2.27000e-001,-6.09259e-003,3.40500e+000,6.21054e-001,3.40500e+000,-5.85337e-001,3.40500e+000,3.65450e-001,3.40500e+000,-3.71642e-001,3.40500e+000,4.79736e-002
2.28000e-001,-9.87961e-003,3.42000e+000,6.23563e-001,3.42000e+000,-5.84920e-001,3.42000e+000,3.66400e-001,3.42000e+000,-3.67136e-001,3.42000e+000,4.79736e-002
2.29000e-001,-1.09854e-002,3.43500e+000,6.25292e-001,3.43500e+000,-5.84857e-001,3.43500e+000,3.67197e-001,3.43500e+000,-3.63481e-001,3.43500e+000,4.79736e-002
2.30000e-001,-1.07987e-002,3.45000e+000,6.26662e-001,3.45000e+000,-5.85183e-001,3.45000e+000,3.67716e-001,3.45000e+000,-3.60056e-001,3.45000e+000,4.79736e-002
2.31000e-001,-9.20418e-003,3.46500e+000,6.28024e-001,3.46500e+000,-5.86023e-001,3.46500e+000,3.67200e-001,3.46500e+000,-3.56828e-001,3.46500e+000,4.79736e-002
2.32000e-001,-5.36379e-003,3.48000e+000,6.28857e-001,3.48000e+000,-5.86785e-001,3.48000e+000,3.65977e-001,3.48000e+000,-3.55363e-001,3.48000e+000,4.79736e-002
2.33000e-001,-1.40624e-003,3.49500e+000,6.29729e-001,3.49500e+000,-5.87984e-001,3.49500e+000,3.63260e-001,3.49500e+000,-3.54624e-001,3.49500e+000,4.79736e-002
2.34000e-001,2.13303e-003,3.51000e+000,6.30286e-001,3.51000e+000,-5.89221e-001,3.51000e+000,3.60080e-001,3.51000e+000,-3.54825e-001,3.51000e+000,4.79736e-002
2.35000e-001,5.48363e-003,3.52500e+000,6.30317e-001,3.52500e+000,-5.91389e-001,3.52500e+000,3.55330e-001,3.52500e+000,-3.55949e-001,3.52500e+000,4.79736e-002
2.36000e-001,8.84599e-003,3.54000e+000,6.30041e-001,3.54000e+000,-5.92988e-001,3.54000e+000,3.52169e-001,3.54000e+000,-3.56918e-001,3.54000e+000,4.79736e-002
2.37000e-001,1.07474e-002,3.55500e+000,6.29891e-001,3.55500e+000,-5.94613e-001,3.55500e+000,3.49161e-001,3.55500e+000,-3.57433e-001,3.55500e+000,4.79736e-002
2.38000e-001,1.06051e-002,3.57000e+000,6.29775e-001,3.57000e+000,-5.96434e-001,3.57000e+000,3.45988e-001,3.57000e+000,-3.57689e-001,3.57000e+000,4.79736e-002
2.39000e-001,9.10918e-003,3.58500e+000,6.29940e-001,3.58500e+000,-5.97492e-001,3.58500e+000,3.44180e-001,3.58500e+000,-3.57378e-001,3.58500e+000,4.79736e-002
2.40000e-001,6.03317e-003,3.60000e+000,6.30621e-001,3.60000e+000,-5.98455e-001,3.60000e+000,3.42369e-001,3.60000e+000,-3.56302e-001,3.60000e+000,4.79736e-002
2.41000e-001,2.70304e-003,3.61500e+000,6.31412e-001,3.61500e+000,-5.98819e-001,3.61500e+000,3.41581e-001,3.61500e+000,-3.55045e-001,3.61500e+000,4.79736e-002
2.42000e-001,-5.61624e-004,3.63000e+000,6.32447e-001,3.63000e+000,-5.98971e-001,3.63000e+000,3.41195e-001,3.63000e+000,-3.53315e-001,3.63000e+000,4.79736e-002
2.43000e-001,-3.83871e-003,3.64500e+000,6.34219e-001,3.64500e+000,-5.98617e-001,3.64500e+000,3.41447e-001,3.64500e+000,-3.50483e-001,3.64500e+000,4.79736e-002
2.44000e-001,-7.46191e-003,3.66000e+000,6.35610e-001,3.66000e+000,-5.98147e-001,3.66000e+000,3.42308e-001,3.66000e+000,-3.47916e-001,3.66000e+000,4.79736e-002
2.45000e-001,-1.06839e-002,3.67500e+000,6.37573e-001,3.67500e+000,-5.97514e-001,3.67500e+000,3.43707e-001,3.67500e+000,-3.44010e-001,3.67500e+000,4.79736e-002
2.46000e-001,-1.09867e-002,3.69000e+000,6.38780e-001,3.69000e+000,-5.97289e-001,3.69000e+000,3.44919e-001,3.69000e+000,-3.40935e-001,3.69000e+000,4.79736e-002
2.47000e-001,-1.05960e-002,3.70500e+000,6.39940e-001,3.70500e+000,-5.97720e-001,3.70500e+000,3.45583e-001,3.70500e+000,-3.37314e-001,3.70500e+000,4.79736e-002
2.48000e-001,-8.05005e-003,3.72000e+000,6.40611e-001,3.72000e+000,-5.98125e-001,3.72000e+000,3.45209e-001,3.72000e+000,-3.35701e-001,3.72000e+000,4.79736e-002
2.49000e-001,-4.02972e-003,3.73500e+000,6.41194e-001,3.73500e+000,-5.98728e-001,3.73500e+000,3.43905e-001,3.73500e+000,-3.34849e-001,3.73500e+000,4.79736e-002
2.50000e-001,-1.84970e-004,3.75000e+000,6.41745e-001,3.75000e+000,-5.99651e-001,3.75000e+000,3.41071e-001,3.75000e+000,-3.35041e-001,3.75000e+000,4.79736e-002
2.51000e-001,3.28347e-003,3.76500e+000,6.41788e-001,3.76500e+000,-6.00680e-001,3.76500e+000,3.38157e-001,3.76500e+000,-3.36067e-001,3.76500e+000,4.79736e-002
2.52000e-001,6.61024e-003,3.78000e+000,6.41567e-001,3.78000e+000,-6.02483e-001,3.78000e+000,3.34008e-001,3.78000e+000,-3.37409e-001,3.78000e+000,4.79736e-002
2.53000e-001,9.78527e-003,3.79500e+000,6.41278e-001,3.79500e+000,-6.03833e-001,3.79500e+000,3.31330e-001,3.79500e+000,-3.38185e-001,3.79500e+000,4.79736e-002
2.54000e-001,1.08031e-002,3.81000e+000,6.41009e-001,3.81000e+000,-6.05057e-001,3.81000e+000,3.28995e-001,3.81000e+000,-3.38786e-001,3.81000e+000,4.79736e-002
2.55000e-001,1.03633e-002,3.82500e+000,6.40873e-001,3.82500e+000,-6.06281e-001,3.82500e+000,3.26707e-001,3.82500e+000,-3.39069e-001,3.82500e+000,4.79736e-002
2.56000e-001,8.17459e-003,3.84000e+000,6.41092e-001,3.84000e+000,-6.06879e-001,3.84000e+000,3.25554e-001,3.84000e+000,-3.38693e-001,3.84000e+000,4.79736e-002
2.57000e-001,4.91194e-003,3.85500e+000,6.41710e-001,3.85500e+000,-6.07306e-001,3.85500e+000,3.24647e-001,3.85500e+000,-3.37628e-001,3.85500e+000,4.79736e-002
2.58000e-001,1.58584e-003,3.87000e+000,6.42562e-001,3.87000e+000,-6.07265e-001,3.87000e+000,3.24540e-001,3.87000e+000,-3.36179e-001,3.87000e+000,4.79736e-002
2.59000e-001,-1.65332e-003,3.88500e+000,6.43634e-001,3.88500e+000,-6.07043e-001,3.88500e+000,3.24822e-001,3.88500e+000,-3.34251e-001,3.88500e+000,4.79736e-002
2.60000e-001,-4.92134e-003,3.90000e+000,6.45224e-001,3.90000e+000,-6.06522e-001,3.90000e+000,3.25864e-001,3.90000e+000,-3.31104e-001,3.90000e+000,4.79736e-002
2.61000e-001,-8.76072e-003,3.91500e+000,6.46500e-001,3.91500e+000,-6.06056e-001,3.91500e+000,3.26979e-001,3.91500e+000,-3.28358e-001,3.91500e+000,4.79736e-002
2.62000e-001,-1.09767e-002,3.93000e+000,6.47901e-001,3.93000e+000,-6.05695e-001,3.93000e+000,3.28602e-001,3.93000e+000,-3.24621e-001,3.93000e+000,4.79736e-002
2.63000e-001,-1.08840e-002,3.94500e+000,6.48569e-001,3.94500e+000,-6.05841e-001,3.94500e+000,3.29384e-001,3.94500e+000,-3.22214e-001,3.94500e+000,4.79736e-002
2.64000e-001,-1.00683e-002,3.96000e+000,6.49204e-001,3.96000e+000,-6.06241e-001,3.96000e+000,3.29132e-001,3.96000e+000,-3.20433e-001,3.96000e+000,4.79736e-002
2.65000e-001,-6.73075e-003,3.97500e+000,6.49517e-001,3.97500e+000,-6.06689e-001,3.97500e+000,3.28041e-001,3.97500e+000,-3.20071e-001,3.97500e+000,4.79736e-002
2.66000e-001,-2.68122e-003,3.99000e+000,6.49809e-001,3.99000e+000,-6.07192e-001,3.99000e+000,3.26107e-001,3.99000e+000,-3.20501e-001,3.99000e+000,4.79736e-002
2.67000e-001,1.02086e-003,4.00500e+000,6.49721e-001,4.00500e+000,-6.08338e-001,4.00500e+000,3.22553e-001,4.00500e+000,-3.22099e-001,4.00500e+000,4.79736e-002
2.68000e-001,4.43189e-003,4.02000e+000,6.49322e-001,4.02000e+000,-6.09418e-001,4.02000e+000,3.19950e-001,4.02000e+000,-3.23454e-001,4.02000e+000,4.79736e-002
2.69000e-001,7.75228e-003,4.03500e+000,6.48824e-001,4.03500e+000,-6.10885e-001,4.03500e+000,3.16796e-001,4.03500e+000,-3.24788e-001,4.03500e+000,4.79736e-002
2.70000e-001,1.04251e-002,4.05000e+000,6.48592e-001,4.05000e+000,-6.11866e-001,4.05000e+000,3.14756e-001,4.05000e+000,-3.25388e-001,4.05000e+000,4.79736e-002
2.71000e-001,1.07286e-002,4.06500e+000,6.48543e-001,4.06500e+000,-6.12606e-001,4.06500e+000,3.13273e-001,4.06500e+000,-3.25525e-001,4.06500e+000,4.79736e-002
2.72000e-001,9.85711e-003,4.08000e+000,6.48826e-001,4.08000e+000,-6.13135e-001,4.08000e+000,3.12130e-001,4.08000e+000,-3.25062e-001,4.08000e+000,4.79736e-002
2.73000e-001,7.11714e-003,4.09500e+000,6.49295e-001,4.09500e+000,-6.13164e-001,4.09500e+000,3.11905e-001,4.09500e+000,-3.24285e-001,4.09500e+000,4.79736e-002
2.74000e-001,3.79104e-003,4.11000e+000,6.50377e-001,4.11000e+000,-6.12907e-001,4.11000e+000,3.12172e-001,4.11000e+000,-3.22340e-001,4.11000e+000,4.28467e-002
2.75000e-001,4.95491e-004,4.12500e+000,6.51317e-001,4.12500e+000,-6.12515e-001,4.12500e+000,3.12994e-001,4.12500e+000,-3.20383e-001,4.12500e+000,4.28467e-002
2.76000e-001,-2.75776e-003,4.14000e+000,6.52647e-001,4.14000e+000,-6.11769e-001,4.14000e+000,3.14642e-001,4.14000e+000,-3.17477e-001,4.14000e+000,4.28467e-002
2.77000e-001,-6.15134e-003,4.15500e+000,6.53383e-001,4.15500e+000,-6.11203e-001,4.15500e+000,3.16344e-001,4.15500e+000,-3.15355e-001,4.15500e+000,4.28467e-002
2.78000e-001,-9.93231e-003,4.17000e+000,6.54123e-001,4.17000e+000,-6.11070e-001,4.17000e+000,3.17559e-001,4.17000e+000,-3.12846e-001,4.17000e+000,4.28467e-002
2.79000e-001,-1.09854e-002,4.18500e+000,6.54751e-001,4.18500e+000,-6.11299e-001,4.18500e+000,3.18032e-001,4.18500e+000,-3.10598e-001,4.18500e+000,4.28467e-002
2.80000e-001,-1.07964e-002,4.20000e+000,6.55015e-001,4.20000e+000,-6.11573e-001,4.20000e+000,3.17533e-001,4.20000e+000,-3.10010e-001,4.20000e+000,4.28467e-002
2.81000e-001,-9.17900e-003,4.21500e+000,6.55298e-001,4.21500e+000,-6.12100e-001,4.21500e+000,3.15483e-001,4.21500e+000,-3.10466e-001,4.21500e+000,4.28467e-002
2.82000e-001,-5.32351e-003,4.23000e+000,6.55241e-001,4.23000e+000,-6.12796e-001,4.23000e+000,3.13086e-001,4.23000e+000,-3.11636e-001,4.23000e+000,4.28467e-002
2.83000e-001,-1.37066e-003,4.24500e+000,6.55076e-001,4.24500e+000,-6.13741e-001,4.24500e+000,3.10372e-001,4.24500e+000,-3.12838e-001,4.24500e+000,4.28467e-002
2.84000e-001,2.17230e-003,4.26000e+000,6.54474e-001,4.26000e+000,-6.15095e-001,4.26000e+000,3.07314e-001,4.26000e+000,-3.14453e-001,4.26000e+000,4.28467e-002
2.85000e-001,5.52392e-003,4.27500e+000,6.54152e-001,4.27500e+000,-6.15958e-001,4.27500e+000,3.05440e-001,4.27500e+000,-3.15258e-001,4.27500e+000,4.28467e-002
2.86000e-001,8.85405e-003,4.29000e+000,6.53843e-001,4.29000e+000,-6.16753e-001,4.29000e+000,3.03779e-001,4.29000e+000,-3.15948e-001,4.29000e+000,4.28467e-002
2.87000e-001,1.07390e-002,4.30500e+000,6.53869e-001,4.30500e+000,-6.17051e-001,4.30500e+000,3.03129e-001,4.30500e+000,-3.15935e-001,4.30500e+000,4.28467e-002
2.88000e-001,1.06030e-002,4.32000e+000,6.54186e-001,4.32000e+000,-6.17131e-001,4.32000e+000,3.02845e-001,4.32000e+000,-3.15397e-001,4.32000e+000,4.28467e-002
2.89000e-001,9.08635e-003,4.33500e+000,6.55041e-001,4.33500e+000,-6.16852e-001,4.33500e+000,3.03274e-001,4.33500e+000,-3.13752e-001,4.33500e+000,4.28467e-002
2.90000e-001,6.01001e-003,4.35000e+000,6.55803e-001,4.35000e+000,-6.16485e-001,4.35000e+000,3.04107e-001,4.35000e+000,-3.12071e-001,4.35000e+000,4.28467e-002
2.91000e-001,2.66981e-003,4.36500e+000,6.56937e-001,4.36500e+000,-6.15708e-001,4.36500e+000,3.05836e-001,4.36500e+000,-3.09519e-001,4.36500e+000,4.28467e-002
2.92000e-001,-5.99222e-004,4.38000e+000,6.57736e-001,4.38000e+000,-6.15239e-001,4.38000e+000,3.07318e-001,4.38000e+000,-3.07277e-001,4.38000e+000,4.28467e-002
2.93000e-001,-3.86456e-003,4.39500e+000,6.58432e-001,4.39500e+000,-6.14933e-001,4.39500e+000,3.09128e-001,4.39500e+000,-3.04572e-001,4.39500e+000,4.28467e-002
2.94000e-001,-7.45586e-003,4.41000e+000,6.58817e-001,4.41000e+000,-6.14929e-001,4.41000e+000,3.09674e-001,4.41000e+000,-3.03191e-001,4.41000e+000,4.28467e-002
2.95000e-001,-1.06843e-002,4.42500e+000,6.58346e-001,4.42500e+000,-6.15992e-001,4.42500e+000,3.09462e-001,4.42500e+000,-3.02271e-001,4.42500e+000,4.28467e-002
2.96000e-001,-1.09867e-002,4.44000e+000,6.58224e-001,4.44000e+000,-6.18097e-001,4.44000e+000,3.06809e-001,4.44000e+000,-3.00941e-001,4.44000e+000,4.28467e-002
2.97000e-001,-1.05920e-002,4.45500e+000,6.59521e-001,4.45500e+000,-6.18571e-001,4.45500e+000,3.04659e-001,4.45500e+000,-2.99308e-001,4.45500e+000,4.28467e-002
2.98000e-001,-8.02722e-003,4.47000e+000,6.62620e-001,4.47000e+000,-6.17889e-001,4.47000e+000,3.01980e-001,4.47000e+000,-2.96573e-001,4.47000e+000,4.28467e-002
2.99000e-001,-3.99649e-003,4.48500e+000,6.62644e-001,4.48500e+000,-6.19425e-001,4.48500e+000,3.00211e-001,4.48500e+000,-2.95109e-001,4.48500e+000,4.28467e-002
3.00000e-001,-1.64157e-004,4.50000e+000,6.62887e-001,4.50000e+000,-6.19832e-001,4.50000e+000,2.99785e-001,4.50000e+000,-2.94141e-001,4.50000e+000,4.28467e-002
3.01000e-001,3.29220e-003,4.51500e+000,6.63092e-001,4.51500e+000,-6.20139e-001,4.51500e+000,2.98954e-001,4.51500e+000,-2.93877e-001,4.51500e+000,4.28467e-002
3.02000e-001,6.63240e-003,4.53000e+000,6.63700e-001,4.53000e+000,-6.21449e-001,4.53000e+000,2.96440e-001,4.53000e+000,-2.92279e-001,4.53000e+000,4.28467e-002
3.03000e-001,9.80609e-003,4.54500e+000,6.65435e-001,4.54500e+000,-6.23484e-001,4.54500e+000,2.91039e-001,4.54500e+000,-2.89413e-001,4.54500e+000,4.28467e-002
3.04000e-001,1.08031e-002,4.56000e+000,6.66557e-001,4.56000e+000,-6.25251e-001,4.56000e+000,2.86809e-001,4.56000e+000,-2.87235e-001,4.56000e+000,4.28467e-002
3.05000e-001,1.03607e-002,4.57500e+000,6.67178e-001,4.57500e+000,-6.26514e-001,4.57500e+000,2.83560e-001,4.57500e+000,-2.86266e-001,4.57500e+000,4.28467e-002
3.06000e-001,8.18064e-003,4.59000e+000,6.67187e-001,4.59000e+000,-6.26611e-001,4.59000e+000,2.83203e-001,4.59000e+000,-2.86386e-001,4.59000e+000,4.28467e-002
3.07000e-001,4.92638e-003,4.60500e+000,6.67176e-001,4.60500e+000,-6.26619e-001,4.60500e+000,2.83127e-001,4.60500e+000,-2.86467e-001,4.60500e+000,4.28467e-002
3.08000e-001,1.59960e-003,4.62000e+000,6.65921e-001,4.62000e+000,-6.25936e-001,4.62000e+000,2.84459e-001,4.62000e+000,-2.89544e-001,4.62000e+000,4.28467e-002
3.09000e-001,-1.65902e-003,4.63500e+000,6.64703e-001,4.63500e+000,-6.25051e-001,4.63500e+000,2.86265e-001,4.63500e+000,-2.92461e-001,4.63500e+000,4.28467e-002
3.10000e-001,-4.94786e-003,4.65000e+000,6.63227e-001,4.65000e+000,-6.24058e-001,4.65000e+000,2.88238e-001,4.65000e+000,-2.95971e-001,4.65000e+000,4.28467e-002
3.11000e-001,-8.81846e-003,4.66500e+000,6.61857e-001,4.66500e+000,-6.22667e-001,4.66500e+000,2.91004e-001,4.66500e+000,-2.99244e-001,4.66500e+000,4.28467e-002
3.12000e-001,-1.09780e-002,4.68000e+000,6.61056e-001,4.68000e+000,-6.22076e-001,4.68000e+000,2.92503e-001,4.68000e+000,-3.00780e-001,4.68000e+000,4.28467e-002
3.13000e-001,-1.08813e-002,4.69500e+000,6.60618e-001,4.69500e+000,-6.22159e-001,4.69500e+000,2.93331e-001,4.69500e+000,-3.00765e-001,4.69500e+000,4.28467e-002
3.14000e-001,-1.00585e-002,4.71000e+000,6.60001e-001,4.71000e+000,-6.22536e-001,4.71000e+000,2.94369e-001,4.71000e+000,-3.00325e-001,4.71000e+000,4.28467e-002
3.15000e-001,-6.69148e-003,4.72500e+000,6.58900e-001,4.72500e+000,-6.23607e-001,4.72500e+000,2.95755e-001,4.72500e+000,-2.99156e-001,4.72500e+000,4.28467e-002
3.16000e-001,-2.64900e-003,4.74000e+000,6.56555e-001,4.74000e+000,-6.24551e-001,4.74000e+000,2.98710e-001,4.74000e+000,-2.99407e-001,4.74000e+000,4.28467e-002
3.17000e-001,1.04167e-003,4.75500e+000,6.47397e-001,4.75500e+000,-6.33319e-001,4.75500e+000,3.04671e-001,4.75500e+000,-2.94890e-001,4.75500e+000,4.28467e-002
3.18000e-001,4.44431e-003,4.77000e+000,6.38868e-001,4.77000e+000,-6.43580e-001,4.77000e+000,3.07511e-001,4.77000e+000,-2.88251e-001,4.77000e+000,4.28467e-002
3.19000e-001,7.77444e-003,4.78500e+000,6.29610e-001,4.78500e+000,-6.55416e-001,4.78500e+000,3.08476e-001,4.78500e+000,-2.80826e-001,4.78500e+000,4.28467e-002
3.20000e-001,1.04191e-002,4.80000e+000,6.19534e-001,4.80000e+000,-6.66211e-001,4.80000e+000,3.11190e-001,4.80000e+000,-2.74774e-001,4.80000e+000,4.28467e-002
3.21000e-001,1.07269e-002,4.81500e+000,6.13933e-001,4.81500e+000,-6.70443e-001,4.81500e+000,3.15684e-001,4.81500e+000,-2.71910e-001,4.81500e+000,4.28467e-002
3.22000e-001,9.84906e-003,4.83000e+000,6.06136e-001,4.83000e+000,-6.74710e-001,4.83000e+000,3.23929e-001,4.83000e+000,-2.69137e-001,4.83000e+000,4.00391e-002
3.23000e-001,7.10103e-003,4.84500e+000,5.97202e-001,4.84500e+000,-6.81417e-001,4.84500e+000,3.28859e-001,4.84500e+000,-2.66211e-001,4.84500e+000,4.00391e-002
3.24000e-001,3.77661e-003,4.86000e+000,5.86300e-001,4.86000e+000,-6.90526e-001,4.86000e+000,3.31521e-001,4.86000e+000,-2.63644e-001,4.86000e+000,4.00391e-002
3.25000e-001,4.77028e-004,4.87500e+000,5.73533e-001,4.87500e+000,-7.02288e-001,4.87500e+000,3.33971e-001,4.87500e+000,-2.57511e-001,4.87500e+000,4.00391e-002
3.26000e-001,-2.77086e-003,4.89000e+000,5.63714e-001,4.89000e+000,-7.11617e-001,4.89000e+000,3.34304e-001,4.89000e+000,-2.53114e-001,4.89000e+000,4.00391e-002
3.27000e-001,-6.15637e-003,4.90500e+000,5.47601e-001,4.90500e+000,-7.29744e-001,4.90500e+000,3.30983e-001,4.90500e+000,-2.40950e-001,4.90500e+000,3.96729e-002
3.28000e-001,-9.93735e-003,4.92000e+000,5.25352e-001,4.92000e+000,-7.51087e-001,4.92000e+000,3.32000e-001,4.92000e+000,-2.22821e-001,4.92000e+000,3.91846e-002
3.29000e-001,-1.09857e-002,4.93500e+000,4.97953e-001,4.93500e+000,-7.74290e-001,4.93500e+000,3.35244e-001,4.93500e+000,-2.00292e-001,4.93500e+000,3.91846e-002
3.30000e-001,-1.07951e-002,4.95000e+000,4.71000e-001,4.95000e+000,-7.96450e-001,4.95000e+000,3.36207e-001,4.95000e+000,-1.75473e-001,4.95000e+000,3.85742e-002
3.31000e-001,-9.16860e-003,4.96500e+000,4.59736e-001,4.96500e+000,-8.06902e-001,4.96500e+000,3.33394e-001,4.96500e+000,-1.62484e-001,4.96500e+000,3.85742e-002
3.32000e-001,-5.32787e-003,4.98000e+000,4.37443e-001,4.98000e+000,-8.22562e-001,4.98000e+000,3.33144e-001,4.98000e+000,-1.45084e-001,4.98000e+000,3.85742e-002
3.33000e-001,-1.37234e-003,4.99500e+000,4.17786e-001,4.99500e+000,-8.35065e-001,4.99500e+000,3.33051e-001,4.99500e+000,-1.31134e-001,4.99500e+000,3.84521e-002
3.34000e-001,2.17230e-003,5.01000e+000,3.94551e-001,5.01000e+000,-8.47900e-001,5.01000e+000,3.34159e-001,5.01000e+000,-1.17189e-001,5.01000e+000,3.84521e-002
3.35000e-001,5.51318e-003,5.02500e+000,3.79434e-001,5.02500e+000,-8.54545e-001,5.02500e+000,3.36953e-001,5.02500e+000,-1.10657e-001,5.02500e+000,3.84521e-002
3.36000e-001,8.85875e-003,5.04000e+000,3.67160e-001,5.04000e+000,-8.60518e-001,5.04000e+000,3.37528e-001,5.04000e+000,-1.03801e-001,5.04000e+000,3.84521e-002
3.37000e-001,1.07434e-002,5.05500e+000,3.53889e-001,5.05500e+000,-8.66099e-001,5.05500e+000,3.37919e-001,5.05500e+000,-1.02202e-001,5.05500e+000,3.85742e-002
3.38000e-001,1.06051e-002,5.07000e+000,3.42862e-001,5.07000e+000,-8.70392e-001,5.07000e+000,3.39070e-001,5.07000e+000,-9.94681e-002,5.07000e+000,3.85742e-002
3.39000e-001,9.09978e-003,5.08500e+000,3.20389e-001,5.08500e+000,-8.78577e-001,5.08500e+000,3.41482e-001,5.08500e+000,-9.40382e-002,5.08500e+000,3.85742e-002
3.40000e-001,6.00867e-003,5.10000e+000,3.05016e-001,5.10000e+000,-8.85336e-001,5.10000e+000,3.39950e-001,5.10000e+000,-8.70613e-002,5.10000e+000,3.85742e-002
3.41000e-001,2.68156e-003,5.11500e+000,2.92022e-001,5.11500e+000,-8.91892e-001,5.11500e+000,3.35636e-001,5.11500e+000,-8.12261e-002,5.11500e+000,3.85742e-002
3.42000e-001,-5.82101e-004,5.13000e+000,2.71600e-001,5.13000e+000,-9.02591e-001,5.13000e+000,3.26619e-001,5.13000e+000,-6.98738e-002,5.13000e+000,3.79639e-002
3.43000e-001,-3.87295e-003,5.14500e+000,2.51705e-001,5.14500e+000,-9.10908e-001,5.14500e+000,3.19468e-001,5.14500e+000,-6.95059e-002,5.14500e+000,3.79639e-002
3.44000e-001,-7.51226e-003,5.16000e+000,2.44006e-001,5.16000e+000,-9.11722e-001,5.16000e+000,3.22611e-001,5.16000e+000,-7.17401e-002,5.16000e+000,3.79639e-002
3.45000e-001,-1.07074e-002,5.17500e+000,2.44322e-001,5.17500e+000,-9.11821e-001,5.17500e+000,3.21987e-001,5.17500e+000,-7.22084e-002,5.17500e+000,3.79639e-002
3.46000e-001,-1.09871e-002,5.19000e+000,2.43738e-001,5.19000e+000,-9.10812e-001,5.19000e+000,3.24690e-001,5.19000e+000,-7.47625e-002,5.19000e+000,3.79639e-002
3.47000e-001,-1.05775e-002,5.20500e+000,2.40068e-001,5.20500e+000,-9.10733e-001,5.20500e+000,3.27529e-001,5.20500e+000,-7.52134e-002,5.20500e+000,3.79639e-002
3.48000e-001,-7.99332e-003,5.22000e+000,2.37243e-001,5.22000e+000,-9.10714e-001,5.22000e+000,3.29755e-001,5.22000e+000,-7.46681e-002,5.22000e+000,3.79639e-002
3.49000e-001,-3.97098e-003,5.23500e+000,2.33733e-001,5.23500e+000,-9.10855e-001,5.23500e+000,3.32036e-001,5.23500e+000,-7.39153e-002,5.23500e+000,3.79639e-002
3.50000e-001,-1.38308e-004,5.25000e+000,2.31029e-001,5.25000e+000,-9.11123e-001,5.25000e+000,3.33314e-001,5.25000e+000,-7.33605e-002,5.25000e+000,3.79639e-002
3.51000e-001,3.32879e-003,5.26500e+000,2.27045e-001,5.26500e+000,-9.11726e-001,5.26500e+000,3.34667e-001,5.26500e+000,-7.21413e-002,5.26500e+000,3.79639e-002
3.52000e-001,6.65824e-003,5.28000e+000,2.23633e-001,5.28000e+000,-9.12248e-001,5.28000e+000,3.35753e-001,5.28000e+000,-7.11468e-002,5.28000e+000,3.79639e-002
3.53000e-001,9.79937e-003,5.29500e+000,2.20158e-001,5.29500e+000,-9.13132e-001,5.29500e+000,3.36018e-001,5.29500e+000,-6.93642e-002,5.29500e+000,3.79639e-002
3.54000e-001,1.07984e-002,5.31000e+000,2.13067e-001,5.31000e+000,-9.14219e-001,5.31000e+000,3.38259e-001,5.31000e+000,-6.62389e-002,5.31000e+000,3.79639e-002
3.55000e-001,1.03560e-002,5.32500e+000,2.05910e-001,5.32500e+000,-9.15036e-001,5.32500e+000,3.40980e-001,5.32500e+000,-6.35721e-002,5.32500e+000,3.79639e-002
3.56000e-001,8.17392e-003,5.34000e+000,1.93496e-001,5.34000e+000,-9.16496e-001,5.34000e+000,3.44719e-001,5.34000e+000,-6.13474e-002,5.34000e+000,3.79639e-002
3.57000e-001,4.90153e-003,5.35500e+000,1.85037e-001,5.35500e+000,-9.18134e-001,5.35500e+000,3.45477e-001,5.35500e+000,-5.86219e-002,5.35500e+000,3.79639e-002
3.58000e-001,1.56201e-003,5.37000e+000,1.78339e-001,5.37000e+000,-9.19579e-001,5.37000e+000,3.45544e-001,5.37000e+000,-5.62932e-002,5.37000e+000,3.79639e-002
3.59000e-001,-1.68521e-003,5.38500e+000,1.70733e-001,5.38500e+000,-9.21347e-001,5.38500e+000,3.45088e-001,5.38500e+000,-5.37046e-002,5.38500e+000,3.79639e-002
3.60000e-001,-4.95357e-003,5.40000e+000,1.64873e-001,5.40000e+000,-9.22686e-001,5.40000e+000,3.44678e-001,5.40000e+000,-5.16211e-002,5.40000e+000,3.79639e-002
3.61000e-001,-8.81947e-003,5.41500e+000,1.56636e-001,5.41500e+000,-9.24664e-001,5.41500e+000,3.43851e-001,5.41500e+000,-4.72016e-002,5.41500e+000,3.79639e-002
3.62000e-001,-1.09787e-002,5.43000e+000,1.51303e-001,5.43000e+000,-9.26285e-001,5.43000e+000,3.42090e-001,5.43000e+000,-4.55771e-002,5.43000e+000,3.79639e-002
3.63000e-001,-1.08810e-002,5.44500e+000,1.47301e-001,5.44500e+000,-9.28045e-001,5.44500e+000,3.39240e-001,5.44500e+000,-4.41625e-002,5.44500e+000,3.79639e-002
3.64000e-001,-1.00565e-002,5.46000e+000,1.43308e-001,5.46000e+000,-9.29398e-001,5.46000e+000,3.37433e-001,5.46000e+000,-4.26648e-002,5.46000e+000,3.79639e-002
3.65000e-001,-6.67469e-003,5.47500e+000,1.33965e-001,5.47500e+000,-9.30954e-001,5.47500e+000,3.37473e-001,5.47500e+000,-3.86030e-002,5.47500e+000,3.79639e-002
3.66000e-001,-2.64665e-003,5.49000e+000,1.14982e-001,5.49000e+000,-9.33770e-001,5.49000e+000,3.37327e-001,5.49000e+000,-3.25988e-002,5.49000e+000,3.74756e-002
3.67000e-001,1.02220e-003,5.50500e+000,9.44109e-002,5.50500e+000,-9.36820e-001,5.50500e+000,3.35856e-001,5.50500e+000,-2.56091e-002,5.50500e+000,3.74756e-002
3.68000e-001,4.42820e-003,5.52000e+000,4.11383e-002,5.52000e+000,-9.42358e-001,5.52000e+000,3.32016e-001,5.52000e+000,-5.78037e-003,5.52000e+000,3.74756e-002
3.69000e-001,7.78653e-003,5.53500e+000,3.32311e-002,5.53500e+000,-9.43576e-001,5.53500e+000,3.29472e-001,5.53500e+000,-2.75137e-003,5.53500e+000,3.69873e-002
3.70000e-001,1.04332e-002,5.55000e+000,3.69932e-002,5.55000e+000,-9.43259e-001,5.55000e+000,3.29962e-001,5.55000e+000,-4.25694e-003,5.55000e+000,3.64990e-002
3.71000e-001,1.07259e-002,5.56500e+000,3.66090e-002,5.56500e+000,-9.43166e-001,5.56500e+000,3.30272e-001,5.56500e+000,-4.15992e-003,5.56500e+000,3.64990e-002
3.72000e-001,9.85913e-003,5.58000e+000,3.71078e-002,5.58000e+000,-9.43071e-001,5.58000e+000,3.30486e-001,5.58000e+000,-4.39521e-003,5.58000e+000,3.64990e-002
3.73000e-001,7.12184e-003,5.59500e+000,3.65525e-002,5.59500e+000,-9.42880e-001,5.59500e+000,3.31092e-001,5.59500e+000,-4.47335e-003,5.59500e+000,3.64990e-002
3.74000e-001,3.78601e-003,5.61000e+000,3.61128e-002,5.61000e+000,-9.42949e-001,5.61000e+000,3.30943e-001,5.61000e+000,-4.40660e-003,5.61000e+000,3.64990e-002
3.75000e-001,4.74342e-004,5.62500e+000,3.57672e-002,5.62500e+000,-9.43038e-001,5.62500e+000,3.30726e-001,5.62500e+000,-4.44173e-003,5.62500e+000,3.64990e-002
3.76000e-001,-2.79133e-003,5.64000e+000,3.59619e-002,5.64000e+000,-9.42921e-001,5.64000e+000,3.31037e-001,5.64000e+000,-4.51630e-003,5.64000e+000,3.64990e-002
3.77000e-001,-6.19464e-003,5.65500e+000,3.58313e-002,5.65500e+000,-9.42848e-001,5.65500e+000,3.31259e-001,5.65500e+000,-4.56745e-003,5.65500e+000,3.64990e-002
3.78000e-001,-9.96655e-003,5.67000e+000,3.54374e-002,5.67000e+000,-9.42793e-001,5.67000e+000,3.31461e-001,5.67000e+000,-4.43038e-003,5.67000e+000,3.64990e-002
3.79000e-001,-1.09857e-002,5.68500e+000,3.52284e-002,5.68500e+000,-9.42720e-001,5.68500e+000,3.31691e-001,5.68500e+000,-4.41782e-003,5.68500e+000,3.64990e-002
3.80000e-001,-1.07930e-002,5.70000e+000,3.52023e-002,5.70000e+000,-9.42893e-001,5.70000e+000,3.31200e-001,5.70000e+000,-4.52427e-003,5.70000e+000,3.64990e-002
3.81000e-001,-9.14980e-003,5.71500e+000,3.51709e-002,5.71500e+000,-9.43107e-001,5.71500e+000,3.30591e-001,5.71500e+000,-4.55138e-003,5.71500e+000,3.64990e-002
3.82000e-001,-5.28826e-003,5.73000e+000,3.53367e-002,5.73000e+000,-9.43351e-001,5.73000e+000,3.29875e-001,5.73000e+000,-4.67627e-003,5.73000e+000,3.64990e-002
3.83000e-001,-1.32164e-003,5.74500e+000,3.50039e-002,5.74500e+000,-9.43891e-001,5.74500e+000,3.28362e-001,5.74500e+000,-4.72883e-003,5.74500e+000,3.64990e-002
3.84000e-001,2.22937e-003,5.76000e+000,3.17679e-002,5.76000e+000,-9.44093e-001,5.76000e+000,3.28125e-001,5.76000e+000,-3.71442e-003,5.76000e+000,3.64990e-002
3.85000e-001,5.55480e-003,5.77500e+000,2.66639e-002,5.77500e+000,-9.44526e-001,5.77500e+000,3.27347e-001,5.77500e+000,-2.17913e-003,5.77500e+000,3.64990e-002
3.86000e-001,8.86882e-003,5.79000e+000,2.20937e-002,5.79000e+000,-9.45276e-001,5.79000e+000,3.25523e-001,5.79000e+000,-4.23217e-004,5.79000e+000,3.64990e-002
3.87000e-001,1.07387e-002,5.80500e+000,1.28513e-002,5.80500e+000,-9.46704e-001,5.80500e+000,3.21831e-001,5.80500e+000,3.23872e-003,5.80500e+000,3.64990e-002
3.88000e-001,1.05990e-002,5.82000e+000,9.23860e-003,5.82000e+000,9.48043e-001,5.82000e+000,-3.17832e-001,5.82000e+000,-1.05842e-002,5.82000e+000,3.64990e-002
3.89000e-001,9.08165e-003,5.83500e+000,1.05848e-002,5.83500e+000,9.48811e-001,5.83500e+000,-3.15462e-001,5.83500e+000,-1.13856e-002,5.83500e+000,3.64990e-002
3.90000e-001,5.98651e-003,5.85000e+000,8.24217e-003,5.85000e+000,-9.50053e-001,5.85000e+000,3.11932e-001,5.85000e+000,5.40999e-003,5.85000e+000,3.64990e-002
3.91000e-001,2.66511e-003,5.86500e+000,1.20764e-002,5.86500e+000,-9.50662e-001,5.86500e+000,3.09960e-001,5.86500e+000,4.62634e-003,5.86500e+000,3.64990e-002
3.92000e-001,-5.91501e-004,5.88000e+000,2.42917e-003,5.88000e+000,-9.51222e-001,5.88000e+000,3.08410e-001,5.88000e+000,7.34413e-003,5.88000e+000,3.64990e-002
3.93000e-001,-3.86557e-003,5.89500e+000,5.01362e-003,5.89500e+000,9.51374e-001,5.89500e+000,-3.07817e-001,5.89500e+000,-1.05526e-002,5.89500e+000,3.64990e-002
3.94000e-001,-7.51293e-003,5.91000e+000,2.49125e-003,5.91000e+000,9.51617e-001,5.91000e+000,-3.07124e-001,5.91000e+000,-9.72494e-003,5.91000e+000,3.64990e-002
3.95000e-001,-1.07236e-002,5.92500e+000,7.05715e-003,5.92500e+000,-9.51909e-001,5.92500e+000,3.06225e-001,5.92500e+000,6.77315e-003,5.92500e+000,3.64990e-002
3.96000e-001,-1.09871e-002,5.94000e+000,8.32850e-003,5.94000e+000,-9.52080e-001,5.94000e+000,3.05674e-001,5.94000e+000,6.08513e-003,5.94000e+000,3.64990e-002
3.97000e-001,-1.05889e-002,5.95500e+000,1.11837e-003,5.95500e+000,-9.52190e-001,5.95500e+000,3.05390e-001,5.95500e+000,8.29129e-003,5.95500e+000,3.64990e-002
3.98000e-001,-7.99969e-003,5.97000e+000,2.89188e-003,5.97000e+000,9.52191e-001,5.97000e+000,-3.05334e-001,5.97000e+000,-9.71125e-003,5.97000e+000,3.64990e-002
3.99000e-001,-3.96493e-003,5.98500e+000,9.52421e-004,5.98500e+000,9.52268e-001,5.98500e+000,-3.05133e-001,5.98500e+000,-8.92535e-003,5.98500e+000,3.64990e-002
4.00000e-001,-1.23873e-004,6.00000e+000,6.48098e-003,6.00000e+000,-9.52154e-001,6.00000e+000,3.05474e-001,6.00000e+000,6.82612e-003,6.00000e+000,3.64990e-002
4.01000e-001,3.31637e-003,6.01500e+000,7.55799e-003,6.01500e+000,-9.52150e-001,6.01500e+000,3.05474e-001,6.01500e+000,6.25299e-003,6.01500e+000,3.64990e-002
4.02000e-001,6.64918e-003,6.03000e+000,1.42062e-003,6.03000e+000,-9.52205e-001,6.03000e+000,3.05350e-001,6.03000e+000,8.02541e-003,6.03000e+000,3.64990e-002
4.03000e-001,9.79669e-003,6.04500e+000,2.20361e-003,6.04500e+000,9.52219e-001,6.04500e+000,-3.05275e-001,6.04500e+000,-9.03849e-003,6.04500e+000,3.64990e-002
4.04000e-001,1.07974e-002,6.06000e+000,1.29906e-003,6.06000e+000,-9.52280e-001,6.06000e+000,3.05125e-001,6.06000e+000,7.74065e-003,6.06000e+000,3.64990e-002
4.05000e-001,1.03439e-002,6.07500e+000,6.13714e-003,6.07500e+000,-9.52370e-001,6.07500e+000,3.04811e-001,6.07500e+000,6.59976e-003,6.07500e+000,3.64990e-002
4.06000e-001,8.15109e-003,6.09000e+000,6.70288e-003,6.09000e+000,-9.52433e-001,6.09000e+000,3.04609e-001,6.09000e+000,6.26691e-003,6.09000e+000,3.64990e-002
4.07000e-001,4.90523e-003,6.10500e+000,1.12045e-003,6.10500e+000,-9.52455e-001,6.10500e+000,3.04583e-001,6.10500e+000,7.59589e-003,6.10500e+000,3.64990e-002
4.08000e-001,1.57510e-003,6.12000e+000,1.76501e-003,6.12000e+000,9.52494e-001,6.12000e+000,-3.04435e-001,6.12000e+000,-8.47723e-003,6.12000e+000,3.64990e-002
4.09000e-001,-1.68756e-003,6.13500e+000,2.15770e-003,6.13500e+000,-9.52605e-001,6.13500e+000,3.04118e-001,6.13500e+000,7.15836e-003,6.13500e+000,3.64990e-002
4.10000e-001,-4.99419e-003,6.15000e+000,6.07836e-003,6.15000e+000,-9.52645e-001,6.15000e+000,3.03962e-001,6.15000e+000,6.17001e-003,6.15000e+000,3.64990e-002
4.11000e-001,-8.86412e-003,6.16500e+000,5.72207e-003,6.16500e+000,-9.52657e-001,6.16500e+000,3.03929e-001,6.16500e+000,6.19644e-003,6.16500e+000,3.64990e-002
4.12000e-001,-1.09797e-002,6.18000e+000,1.39848e-004,6.18000e+000,-9.52741e-001,6.18000e+000,3.03690e-001,6.18000e+000,7.48129e-003,6.18000e+000,3.64990e-002
4.13000e-001,-1.08800e-002,6.19500e+000,1.39516e-003,6.19500e+000,9.52778e-001,6.19500e+000,-3.03564e-001,6.19500e+000,-7.83079e-003,6.19500e+000,3.64990e-002
4.14000e-001,-1.00538e-002,6.21000e+000,3.16191e-003,6.21000e+000,-9.52819e-001,6.21000e+000,3.03455e-001,6.21000e+000,6.36514e-003,6.21000e+000,3.64990e-002
4.15000e-001,-6.67134e-003,6.22500e+000,5.67921e-003,6.22500e+000,-9.52775e-001,6.22500e+000,3.03569e-001,6.22500e+000,5.74343e-003,6.22500e+000,3.64990e-002
4.16000e-001,-2.62214e-003,6.24000e+000,2.58158e-003,6.24000e+000,-9.52710e-001,6.24000e+000,3.03802e-001,6.24000e+000,6.47574e-003,6.24000e+000,3.64990e-002
4.17000e-001,1.06853e-003,6.25500e+000,8.21139e-004,6.25500e+000,9.52693e-001,6.25500e+000,-3.03845e-001,6.25500e+000,-7.36990e-003,6.25500e+000,3.64990e-002
4.18000e-001,4.47520e-003,6.27000e+000,1.58574e-004,6.27000e+000,9.52674e-001,6.27000e+000,-3.03909e-001,6.27000e+000,-7.21222e-003,6.27000e+000,3.64990e-002
4.19000e-001,7.82010e-003,6.28500e+000,4.38392e-003,6.28500e+000,-9.52629e-001,6.28500e+000,3.04044e-001,6.28500e+000,5.94607e-003,6.28500e+000,3.64990e-002
4.20000e-001,1.04399e-002,6.30000e+000,4.70029e-003,6.30000e+000,-9.52633e-001,6.30000e+000,3.04031e-001,6.30000e+000,5.83307e-003,6.30000e+000,3.64990e-002
4.21000e-001,1.07219e-002,6.31500e+000,3.15676e-004,6.31500e+000,-9.52592e-001,6.31500e+000,3.04172e-001,6.31500e+000,6.86800e-003,6.31500e+000,3.64990e-002
4.22000e-001,9.85711e-003,6.33000e+000,8.56125e-004,6.33000e+000,9.52546e-001,6.33000e+000,-3.04308e-001,6.33000e+000,-7.26778e-003,6.33000e+000,3.64990e-002
4.23000e-001,7.09767e-003,6.34500e+000,1.68566e-003,6.34500e+000,-9.52567e-001,6.34500e+000,3.04258e-001,6.34500e+000,6.41754e-003,6.34500e+000,3.64990e-002
4.24000e-001,3.77829e-003,6.36000e+000,4.51698e-003,6.36000e+000,-9.52599e-001,6.36000e+000,3.04142e-001,6.36000e+000,5.63883e-003,6.36000e+000,3.64990e-002
4.25000e-001,4.84077e-004,6.37500e+000,2.35875e-003,6.37500e+000,-9.52587e-001,6.37500e+000,3.04197e-001,6.37500e+000,6.03318e-003,6.37500e+000,3.64990e-002
4.26000e-001,-2.77052e-003,6.39000e+000,8.40202e-004,6.39000e+000,9.52548e-001,6.39000e+000,-3.04309e-001,6.39000e+000,-6.91828e-003,6.39000e+000,3.64990e-002
4.27000e-001,-6.16980e-003,6.40500e+000,6.05755e-004,6.40500e+000,-9.52575e-001,6.40500e+000,3.04236e-001,6.40500e+000,6.39849e-003,6.40500e+000,3.64990e-002
4.28000e-001,-9.96588e-003,6.42000e+000,3.38635e-003,6.42000e+000,-9.52587e-001,6.42000e+000,3.04194e-001,6.42000e+000,5.65939e-003,6.42000e+000,3.64990e-002
4.29000e-001,-1.09857e-002,6.43500e+000,2.74047e-003,6.43500e+000,-9.52597e-001,6.43500e+000,3.04167e-001,6.43500e+000,5.74149e-003,6.43500e+000,3.64990e-002
4.30000e-001,-1.07967e-002,6.45000e+000,0.00000e+000,6.45000e+000,-9.52607e-001,6.45000e+000,3.04136e-001,6.45000e+000,6.48117e-003,6.45000e+000,3.64990e-002
4.31000e-001,-9.15685e-003,6.46500e+000,1.49504e-004,6.46500e+000,9.52620e-001,6.46500e+000,-3.04096e-001,6.46500e+000,-6.45901e-003,6.46500e+000,3.64990e-002
4.32000e-001,-5.30907e-003,6.48000e+000,2.31691e-003,6.48000e+000,-9.52600e-001,6.48000e+000,3.04162e-001,6.48000e+000,5.72072e-003,6.48000e+000,3.64990e-002
4.33000e-001,-1.34112e-003,6.49500e+000,2.87980e-003,6.49500e+000,-9.52627e-001,6.49500e+000,3.04078e-001,6.49500e+000,5.54993e-003,6.49500e+000,3.64990e-002
4.34000e-001,2.20856e-003,6.51000e+000,4.36945e-004,6.51000e+000,-9.52632e-001,6.51000e+000,3.04062e-001,6.51000e+000,6.11879e-003,6.51000e+000,3.64990e-002
4.35000e-001,5.55950e-003,6.52500e+000,9.42093e-004,6.52500e+000,9.52664e-001,6.52500e+000,-3.03953e-001,6.52500e+000,-6.49065e-003,6.52500e+000,3.64990e-002
4.36000e-001,8.90172e-003,6.54000e+000,1.15119e-003,6.54000e+000,-9.52770e-001,6.54000e+000,3.03634e-001,6.54000e+000,5.83291e-003,6.54000e+000,3.64990e-002
4.37000e-001,1.07467e-002,6.55500e+000,2.99570e-003,6.55500e+000,-9.52827e-001,6.55500e+000,3.03453e-001,6.55500e+000,5.39075e-003,6.55500e+000,3.64990e-002
4.38000e-001,1.05970e-002,6.57000e+000,1.10876e-003,6.57000e+000,-9.52896e-001,6.57000e+000,3.03240e-001,6.57000e+000,5.83546e-003,6.57000e+000,3.64990e-002
4.39000e-001,9.09206e-003,6.58500e+000,6.43768e-004,6.58500e+000,9.52912e-001,6.58500e+000,-3.03181e-001,6.58500e+000,-6.32098e-003,6.58500e+000,3.64990e-002
4.40000e-001,6.00128e-003,6.60000e+000,4.75721e-004,6.60000e+000,9.52913e-001,6.60000e+000,-3.03179e-001,6.60000e+000,-6.27651e-003,6.60000e+000,3.64990e-002
4.41000e-001,2.66981e-003,6.61500e+000,1.96335e-003,6.61500e+000,-9.52868e-001,6.61500e+000,3.03328e-001,6.61500e+000,5.52099e-003,6.61500e+000,3.64990e-002
4.42000e-001,-6.05936e-004,6.63000e+000,2.35756e-003,6.63000e+000,-9.52968e-001,6.63000e+000,3.03014e-001,6.63000e+000,5.39562e-003,6.63000e+000,3.64990e-002
4.43000e-001,-3.90182e-003,6.64500e+000,0.00000e+000,6.64500e+000,-9.53006e-001,6.64500e+000,3.02895e-001,6.64500e+000,5.88135e-003,6.64500e+000,3.64990e-002
4.44000e-001,-7.56564e-003,6.66000e+000,7.32421e-004,6.66000e+000,9.52948e-001,6.66000e+000,-3.03071e-001,6.66000e+000,-6.13064e-003,6.66000e+000,3.64990e-002
4.45000e-001,-1.07494e-002,6.67500e+000,6.43768e-004,6.67500e+000,-9.52929e-001,6.67500e+000,3.03138e-001,6.67500e+000,5.68235e-003,6.67500e+000,3.64990e-002
4.46000e-001,-1.09864e-002,6.69000e+000,2.15489e-003,6.69000e+000,-9.52991e-001,6.69000e+000,3.02945e-001,6.69000e+000,5.21735e-003,6.69000e+000,3.64990e-002
4.47000e-001,-1.05926e-002,6.70500e+000,1.50962e-003,6.70500e+000,-9.53103e-001,6.70500e+000,3.02594e-001,6.70500e+000,5.33015e-003,6.70500e+000,3.64990e-002
4.48000e-001,-7.98593e-003,6.72000e+000,4.03703e-004,6.72000e+000,9.53059e-001,6.72000e+000,-3.02727e-001,6.72000e+000,-5.84319e-003,6.72000e+000,3.64990e-002
4.49000e-001,-3.94244e-003,6.73500e+000,5.19695e-004,6.73500e+000,9.53125e-001,6.73500e+000,-3.02521e-001,6.73500e+000,-5.82799e-003,6.73500e+000,3.64990e-002
4.50000e-001,-1.03059e-004,6.75000e+000,1.10876e-003,6.75000e+000,-9.53231e-001,6.75000e+000,3.02194e-001,6.75000e+000,5.34384e-003,6.75000e+000,3.64990e-002
4.51000e-001,3.35262e-003,6.76500e+000,2.01415e-003,6.76500e+000,-9.53315e-001,6.76500e+000,3.01929e-001,6.76500e+000,5.02876e-003,6.76500e+000,3.64990e-002
4.52000e-001,6.68409e-003,6.78000e+000,8.30726e-004,6.78000e+000,-9.53347e-001,6.78000e+000,3.01829e-001,6.78000e+000,5.25548e-003,6.78000e+000,3.64990e-002
4.53000e-001,9.81817e-003,6.79500e+000,5.56892e-004,6.79500e+000,9.53323e-001,6.79500e+000,-3.01900e-001,6.79500e+000,-5.62303e-003,6.79500e+000,3.64990e-002
4.54000e-001,1.07944e-002,6.81000e+000,2.69524e-004,6.81000e+000,9.53296e-001,6.81000e+000,-3.01988e-001,6.81000e+000,-5.51585e-003,6.81000e+000,3.64990e-002
4.55000e-001,1.03419e-002,6.82500e+000,1.24675e-003,6.82500e+000,-9.53303e-001,6.82500e+000,3.01971e-001,6.82500e+000,5.02588e-003,6.82500e+000,3.64990e-002
4.56000e-001,8.15109e-003,6.84000e+000,1.54106e-003,6.84000e+000,-9.53330e-001,6.84000e+000,3.01887e-001,6.84000e+000,4.91341e-003,6.84000e+000,3.64990e-002
4.57000e-001,4.90724e-003,6.85500e+000,3.90815e-004,6.85500e+000,-9.53393e-001,6.85500e+000,3.01687e-001,6.85500e+000,5.18917e-003,6.85500e+000,3.64990e-002
4.58000e-001,1.56368e-003,6.87000e+000,5.91756e-004,6.87000e+000,9.53328e-001,6.87000e+000,-3.01890e-001,6.87000e+000,-5.37260e-003,6.87000e+000,3.64990e-002
4.59000e-001,-1.68890e-003,6.88500e+000,1.39848e-004,6.88500e+000,9.53236e-001,6.88500e+000,-3.02181e-001,6.88500e+000,-5.26380e-003,6.88500e+000,3.64990e-002
4.60000e-001,-4.98277e-003,6.90000e+000,1.27409e-003,6.90000e+000,-9.53131e-001,6.90000e+000,3.02516e-001,6.90000e+000,4.81134e-003,6.90000e+000,3.64990e-002
4.61000e-001,-8.86982e-003,6.91500e+000,1.32073e-003,6.91500e+000,-9.53156e-001,6.91500e+000,3.02439e-001,6.91500e+000,4.74128e-003,6.91500e+000,3.64990e-002
4.62000e-001,-1.09797e-002,6.93000e+000,6.10352e-005,6.93000e+000,9.53216e-001,6.93000e+000,-3.02246e-001,6.93000e+000,-5.10261e-003,6.93000e+000,3.64990e-002
4.63000e-001,-1.08820e-002,6.94500e+000,4.11702e-004,6.94500e+000,9.53290e-001,6.94500e+000,-3.02010e-001,6.94500e+000,-5.20360e-003,6.94500e+000,3.64990e-002
4.64000e-001,-1.00676e-002,6.96000e+000,0.00000e+000,6.96000e+000,9.53333e-001,6.96000e+000,-3.01878e-001,6.96000e+000,-5.04616e-003,6.96000e+000,3.64990e-002
4.65000e-001,-6.66596e-003,6.97500e+000,1.08068e-003,6.97500e+000,-9.53240e-001,6.97500e+000,3.02175e-001,6.97500e+000,4.68148e-003,6.97500e+000,3.64990e-002
4.66000e-001,-2.62416e-003,6.99000e+000,1.02403e-003,6.99000e+000,-9.53177e-001,6.99000e+000,3.02374e-001,6.99000e+000,4.66044e-003,6.99000e+000,3.64990e-002
4.67000e-001,1.05913e-003,7.00500e+000,1.64339e-004,7.00500e+000,9.53227e-001,7.00500e+000,-3.02214e-001,7.00500e+000,-4.93749e-003,7.00500e+000,3.64990e-002
4.68000e-001,4.47520e-003,7.02000e+000,4.28334e-004,7.02000e+000,9.53253e-001,7.02000e+000,-3.02134e-001,7.02000e+000,-4.91949e-003,7.02000e+000,3.64990e-002
4.69000e-001,7.82480e-003,7.03500e+000,0.00000e+000,7.03500e+000,9.53242e-001,7.03500e+000,-3.02171e-001,7.03500e+000,-4.79900e-003,7.03500e+000,3.64990e-002
4.70000e-001,1.04654e-002,7.05000e+000,9.37631e-004,7.05000e+000,-9.53193e-001,7.05000e+000,3.02329e-001,7.05000e+000,4.46821e-003,7.05000e+000,3.64990e-002
4.71000e-001,1.07175e-002,7.06500e+000,6.96576e-004,7.06500e+000,-9.53185e-001,7.06500e+000,3.02351e-001,7.06500e+000,4.54765e-003,7.06500e+000,3.64990e-002
4.72000e-001,9.84503e-003,7.08000e+000,3.08212e-004,7.08000e+000,9.53207e-001,7.08000e+000,-3.02282e-001,7.08000e+000,-4.77704e-003,7.08000e+000,3.64990e-002
4.73000e-001,7.09432e-003,7.09500e+000,3.84811e-004,7.09500e+000,9.53251e-001,7.09500e+000,-3.02142e-001,7.09500e+000,-4.76705e-003,7.09500e+000,3.64990e-002
4.74000e-001,3.76889e-003,7.11000e+000,7.12545e-003,7.11000e+000,9.52890e-001,7.11000e+000,-3.03151e-001,7.11000e+000,-6.96144e-003,7.11000e+000,3.64990e-002
4.75000e-001,4.59907e-004,7.12500e+000,1.48202e-002,7.12500e+000,9.51701e-001,7.12500e+000,-3.06506e-001,7.12500e+000,-9.98461e-003,7.12500e+000,3.64990e-002
4.76000e-001,-2.82322e-003,7.14000e+000,1.79955e-002,7.14000e+000,9.51220e-001,7.14000e+000,-3.07799e-001,7.14000e+000,-1.07928e-002,7.14000e+000,3.64990e-002
4.77000e-001,-6.23392e-003,7.15500e+000,1.93896e-002,7.15500e+000,9.51123e-001,7.15500e+000,-3.08011e-001,7.15500e+000,-1.09095e-002,7.15500e+000,3.64990e-002
4.78000e-001,-1.00075e-002,7.17000e+000,2.03853e-002,7.17000e+000,9.51192e-001,7.17000e+000,-3.07729e-001,7.17000e+000,-1.10122e-002,7.17000e+000,3.64990e-002
4.79000e-001,-1.09861e-002,7.18500e+000,2.07353e-002,7.18500e+000,9.51002e-001,7.18500e+000,-3.08285e-001,7.18500e+000,-1.12445e-002,7.18500e+000,3.64990e-002
4.80000e-001,-1.07964e-002,7.20000e+000,2.11246e-002,7.20000e+000,9.50913e-001,7.20000e+000,-3.08526e-001,7.20000e+000,-1.14426e-002,7.20000e+000,3.64990e-002
4.81000e-001,-9.15584e-003,7.21500e+000,2.24774e-002,7.21500e+000,9.51014e-001,7.21500e+000,-3.08101e-001,7.21500e+000,-1.18532e-002,7.21500e+000,3.64990e-002
4.82000e-001,-5.30471e-003,7.23000e+000,2.44549e-002,7.23000e+000,9.50996e-001,7.23000e+000,-3.07977e-001,7.23000e+000,-1.26198e-002,7.23000e+000,3.64990e-002
4.83000e-001,-1.33776e-003,7.24500e+000,2.44052e-002,7.24500e+000,9.50976e-001,7.24500e+000,-3.08042e-001,7.24500e+000,-1.25745e-002,7.24500e+000,3.64990e-002
4.84000e-001,2.21662e-003,7.26000e+000,2.52425e-002,7.26000e+000,9.50906e-001,7.26000e+000,-3.08180e-001,7.26000e+000,-1.28521e-002,7.26000e+000,3.64990e-002
4.85000e-001,5.57629e-003,7.27500e+000,2.65468e-002,7.27500e+000,9.50896e-001,7.27500e+000,-3.08085e-001,7.27500e+000,-1.32447e-002,7.27500e+000,3.64990e-002
4.86000e-001,8.95409e-003,7.29000e+000,2.83822e-002,7.29000e+000,9.51084e-001,7.29000e+000,-3.07322e-001,7.29000e+000,-1.36940e-002,7.29000e+000,3.64990e-002
4.87000e-001,1.07608e-002,7.30500e+000,2.97468e-002,7.30500e+000,9.51450e-001,7.30500e+000,-3.06033e-001,7.30500e+000,-1.42038e-002,7.30500e+000,3.64990e-002
4.88000e-001,1.05957e-002,7.32000e+000,3.02343e-002,7.32000e+000,9.51684e-001,7.32000e+000,-3.05249e-001,7.32000e+000,-1.43832e-002,7.32000e+000,3.64990e-002
4.89000e-001,9.09709e-003,7.33500e+000,3.18913e-002,7.33500e+000,9.52007e-001,7.33500e+000,-3.04044e-001,7.33500e+000,-1.49501e-002,7.33500e+000,3.64990e-002
4.90000e-001,6.00598e-003,7.35000e+000,3.34350e-002,7.35000e+000,9.52004e-001,7.35000e+000,-3.03861e-001,7.35000e+000,-1.54591e-002,7.35000e+000,3.64990e-002
4.91000e-001,2.67115e-003,7.36500e+000,3.74203e-002,7.36500e+000,9.51815e-001,7.36500e+000,-3.03908e-001,7.36500e+000,-1.69953e-002,7.36500e+000,3.64990e-002
4.92000e-001,-5.91165e-004,7.38000e+000,4.10035e-002,7.38000e+000,9.51815e-001,7.38000e+000,-3.03374e-001,7.38000e+000,-1.81909e-002,7.38000e+000,3.64990e-002
4.93000e-001,-3.87900e-003,7.39500e+000,4.50935e-002,7.39500e+000,9.51829e-001,7.39500e+000,-3.02683e-001,7.39500e+000,-1.92909e-002,7.39500e+000,3.64990e-002
4.94000e-001,-7.54818e-003,7.41000e+000,5.02443e-002,7.41000e+000,9.51467e-001,7.41000e+000,-3.02882e-001,7.41000e+000,-2.11721e-002,7.41000e+000,3.74756e-002
4.95000e-001,-1.07460e-002,7.42500e+000,5.57955e-002,7.42500e+000,9.51493e-001,7.42500e+000,-3.01719e-001,7.42500e+000,-2.26678e-002,7.42500e+000,3.74756e-002
4.96000e-001,-1.09867e-002,7.44000e+000,6.53242e-002,7.44000e+000,9.51715e-001,7.44000e+000,-2.98895e-001,7.44000e+000,-2.51748e-002,7.44000e+000,3.74756e-002
4.97000e-001,-1.05967e-002,7.45500e+000,7.32033e-002,7.45500e+000,9.51752e-001,7.45500e+000,-2.96779e-001,7.45500e+000,-2.70583e-002,7.45500e+000,3.74756e-002
4.98000e-001,-8.00607e-003,7.47000e+000,8.26304e-002,7.47000e+000,9.51918e-001,7.47000e+000,-2.93526e-001,7.47000e+000,-2.94365e-002,7.47000e+000,3.74756e-002
4.99000e-001,-3.96594e-003,7.48500e+000,9.60812e-002,7.48500e+000,9.51881e-001,7.48500e+000,-2.89006e-001,7.48500e+000,-3.41485e-002,7.48500e+000,3.74756e-002
5.00000e-001,-1.31258e-004,7.50000e+000,1.07391e-001,7.50000e+000,9.51284e-001,7.50000e+000,-2.86755e-001,7.50000e+000,-3.60246e-002,7.50000e+000,3.74756e-002
5.01000e-001,3.33986e-003,7.51500e+000,1.23578e-001,7.51500e+000,9.49579e-001,7.51500e+000,-2.85245e-001,7.51500e+000,-4.07745e-002,7.51500e+000,3.74756e-002
5.02000e-001,6.69215e-003,7.53000e+000,1.36289e-001,7.53000e+000,9.47813e-001,7.53000e+000,-2.84378e-001,7.53000e+000,-4.69626e-002,7.53000e+000,3.82080e-002
5.03000e-001,9.86484e-003,7.54500e+000,1.53781e-001,7.54500e+000,9.44778e-001,7.54500e+000,-2.84099e-001,7.54500e+000,-5.50842e-002,7.54500e+000,3.82080e-002
5.04000e-001,1.07971e-002,7.56000e+000,1.68666e-001,7.56000e+000,9.41677e-001,7.56000e+000,-2.85418e-001,7.56000e+000,-5.77160e-002,7.56000e+000,3.82080e-002
5.05000e-001,1.03452e-002,7.57500e+000,1.82865e-001,7.57500e+000,9.38528e-001,7.57500e+000,-2.85866e-001,7.57500e+000,-6.32960e-002,7.57500e+000,3.82080e-002
5.06000e-001,8.15143e-003,7.59000e+000,2.05317e-001,7.59000e+000,9.34135e-001,7.59000e+000,-2.83390e-001,7.59000e+000,-7.01844e-002,7.59000e+000,3.82080e-002
5.07000e-001,4.89012e-003,7.60500e+000,2.24068e-001,7.60500e+000,9.30829e-001,7.60500e+000,-2.78211e-001,7.60500e+000,-7.71368e-002,7.60500e+000,3.90625e-002
5.08000e-001,1.55731e-003,7.62000e+000,2.52110e-001,7.62000e+000,9.25461e-001,7.62000e+000,-2.69867e-001,7.62000e+000,-8.44654e-002,7.62000e+000,3.93066e-002
5.09000e-001,-1.71173e-003,7.63500e+000,2.71916e-001,7.63500e+000,9.20715e-001,7.63500e+000,-2.64269e-001,7.63500e+000,-9.22341e-002,7.63500e+000,3.93066e-002
5.10000e-001,-5.00862e-003,7.65000e+000,2.89148e-001,7.65000e+000,9.15765e-001,7.65000e+000,-2.60658e-001,7.65000e+000,-9.91147e-002,7.65000e+000,3.93066e-002
5.11000e-001,-8.90004e-003,7.66500e+000,3.09083e-001,7.66500e+000,9.08670e-001,7.66500e+000,-2.59516e-001,7.66500e+000,-1.06946e-001,7.66500e+000,4.12598e-002
5.12000e-001,-1.09800e-002,7.68000e+000,3.20362e-001,7.68000e+000,9.03386e-001,7.68000e+000,-2.61352e-001,7.68000e+000,-1.13829e-001,7.68000e+000,4.12598e-002
5.13000e-001,-1.08813e-002,7.69500e+000,3.33234e-001,7.69500e+000,8.97363e-001,7.69500e+000,-2.63470e-001,7.69500e+000,-1.19493e-001,7.69500e+000,4.12598e-002
5.14000e-001,-1.00616e-002,7.71000e+000,3.42237e-001,7.71000e+000,8.93046e-001,7.71000e+000,-2.64932e-001,7.71000e+000,-1.23098e-001,7.71000e+000,4.12598e-002
5.15000e-001,-6.66966e-003,7.72500e+000,3.57385e-001,7.72500e+000,8.87041e-001,7.72500e+000,-2.62597e-001,7.72500e+000,-1.28366e-001,7.72500e+000,4.12598e-002
5.16000e-001,-2.61543e-003,7.74000e+000,3.72648e-001,7.74000e+000,8.82090e-001,7.74000e+000,-2.57182e-001,7.74000e+000,-1.30032e-001,7.74000e+000,4.12598e-002
5.17000e-001,1.07256e-003,7.75500e+000,3.88306e-001,7.75500e+000,8.76813e-001,7.75500e+000,-2.51028e-001,7.75500e+000,-1.31916e-001,7.75500e+000,4.21143e-002
5.18000e-001,4.49064e-003,7.77000e+000,4.07298e-001,7.77000e+000,8.68101e-001,7.77000e+000,-2.45705e-001,7.77000e+000,-1.41900e-001,7.77000e+000,4.21143e-002
5.19000e-001,7.86105e-003,7.78500e+000,4.19206e-001,7.78500e+000,8.60629e-001,7.78500e+000,-2.46219e-001,7.78500e+000,-1.51518e-001,7.78500e+000,4.21143e-002
5.20000e-001,1.04641e-002,7.80000e+000,4.33022e-001,7.80000e+000,8.50726e-001,7.80000e+000,-2.49769e-001,7.80000e+000,-1.62394e-001,7.80000e+000,4.21143e-002
5.21000e-001,1.07165e-002,7.81500e+000,4.40342e-001,7.81500e+000,8.44072e-001,7.81500e+000,-2.53224e-001,7.81500e+000,-1.71812e-001,7.81500e+000,4.21143e-002
5.22000e-001,9.83664e-003,7.83000e+000,4.47456e-001,7.83000e+000,8.37844e-001,7.83000e+000,-2.56454e-001,7.83000e+000,-1.78973e-001,7.83000e+000,4.28467e-002
5.23000e-001,7.09767e-003,7.84500e+000,4.59354e-001,7.84500e+000,8.28472e-001,7.84500e+000,-2.59228e-001,7.84500e+000,-1.88224e-001,7.84500e+000,4.28467e-002
5.24000e-001,3.77090e-003,7.86000e+000,4.70168e-001,7.86000e+000,8.17914e-001,7.86000e+000,-2.65395e-001,7.86000e+000,-1.98807e-001,7.86000e+000,4.28467e-002
5.25000e-001,4.72999e-004,7.87500e+000,4.89408e-001,7.87500e+000,8.00054e-001,7.87500e+000,-2.73521e-001,7.87500e+000,-2.13495e-001,7.87500e+000,4.28467e-002
5.26000e-001,-2.79805e-003,7.89000e+000,5.06100e-001,7.89000e+000,7.83939e-001,7.89000e+000,-2.78994e-001,7.89000e+000,-2.26859e-001,7.89000e+000,4.27246e-002
5.27000e-001,-6.21479e-003,7.90500e+000,5.19479e-001,7.90500e+000,7.69129e-001,7.90500e+000,-2.84882e-001,7.90500e+000,-2.39625e-001,7.90500e+000,4.27246e-002
5.28000e-001,-1.00135e-002,7.92000e+000,5.37908e-001,7.92000e+000,7.48268e-001,7.92000e+000,-2.94470e-001,7.92000e+000,-2.53055e-001,7.92000e+000,4.27246e-002
5.29000e-001,-1.09857e-002,7.93500e+000,5.49563e-001,7.93500e+000,7.36492e-001,7.93500e+000,-2.98089e-001,7.93500e+000,-2.58270e-001,7.93500e+000,4.27246e-002
5.30000e-001,-1.07987e-002,7.95000e+000,5.64364e-001,7.95000e+000,7.23112e-001,7.95000e+000,-3.00081e-001,7.95000e+000,-2.61827e-001,7.95000e+000,4.34570e-002
5.31000e-001,-9.18740e-003,7.96500e+000,5.82137e-001,7.96500e+000,7.05255e-001,7.96500e+000,-3.00417e-001,7.96500e+000,-2.71060e-001,7.96500e+000,4.34570e-002
5.32000e-001,-5.31310e-003,7.98000e+000,6.10736e-001,7.98000e+000,6.74706e-001,7.98000e+000,-2.99087e-001,7.98000e+000,-2.86914e-001,7.98000e+000,4.34570e-002
5.33000e-001,-1.35085e-003,7.99500e+000,6.28565e-001,7.99500e+000,6.55753e-001,7.99500e+000,-2.98810e-001,7.99500e+000,-2.92586e-001,7.99500e+000,4.34570e-002
5.34000e-001,2.22467e-003,8.01000e+000,6.40678e-001,8.01000e+000,6.43234e-001,8.01000e+000,-2.99498e-001,8.01000e+000,-2.93400e-001,8.01000e+000,4.34570e-002
5.35000e-001,5.58502e-003,8.02500e+000,6.48755e-001,8.02500e+000,6.34610e-001,8.02500e+000,-2.97840e-001,8.02500e+000,-2.96107e-001,8.02500e+000,4.34570e-002
5.36000e-001,8.97087e-003,8.04000e+000,6.51939e-001,8.04000e+000,6.30544e-001,8.04000e+000,-2.97817e-001,8.04000e+000,-2.97816e-001,8.04000e+000,4.34570e-002
5.37000e-001,1.07662e-002,8.05500e+000,6.54581e-001,8.05500e+000,6.24233e-001,8.05500e+000,-3.00149e-001,8.05500e+000,-3.02931e-001,8.05500e+000,4.34570e-002
5.38000e-001,1.05903e-002,8.07000e+000,6.54777e-001,8.07000e+000,6.22130e-001,8.07000e+000,-3.03101e-001,8.07000e+000,-3.03893e-001,8.07000e+000,4.34570e-002
5.39000e-001,9.07762e-003,8.08500e+000,6.54666e-001,8.08500e+000,6.20371e-001,8.08500e+000,-3.06377e-001,8.08500e+000,-3.04442e-001,8.08500e+000,4.34570e-002
5.40000e-001,6.00565e-003,8.10000e+000,6.54758e-001,8.10000e+000,6.18345e-001,8.10000e+000,-3.10191e-001,8.10000e+000,-3.04504e-001,8.10000e+000,4.34570e-002
5.41000e-001,2.68357e-003,8.11500e+000,6.54270e-001,8.11500e+000,6.17526e-001,8.11500e+000,-3.11488e-001,8.11500e+000,-3.05889e-001,8.11500e+000,4.34570e-002
5.42000e-001,-6.05264e-004,8.13000e+000,6.53507e-001,8.13000e+000,6.16424e-001,8.13000e+000,-3.13317e-001,8.13000e+000,-3.07868e-001,8.13000e+000,4.34570e-002
5.43000e-001,-3.90115e-003,8.14500e+000,6.53005e-001,8.14500e+000,6.15666e-001,8.14500e+000,-3.14410e-001,8.14500e+000,-3.09331e-001,8.14500e+000,4.34570e-002
5.44000e-001,-7.60290e-003,8.16000e+000,6.52398e-001,8.16000e+000,6.14863e-001,8.16000e+000,-3.15552e-001,8.16000e+000,-3.11042e-001,8.16000e+000,4.34570e-002
5.45000e-001,-1.07605e-002,8.17500e+000,6.52112e-001,8.17500e+000,6.14269e-001,8.17500e+000,-3.16303e-001,8.17500e+000,-3.12052e-001,8.17500e+000,4.34570e-002
5.46000e-001,-1.09871e-002,8.19000e+000,6.52332e-001,8.19000e+000,6.13141e-001,8.19000e+000,-3.17840e-001,8.19000e+000,-3.12250e-001,8.19000e+000,4.34570e-002
5.47000e-001,-1.05970e-002,8.20500e+000,6.51994e-001,8.20500e+000,6.10731e-001,8.20500e+000,-3.21611e-001,8.20500e+000,-3.13813e-001,8.20500e+000,4.34570e-002
5.48000e-001,-8.01480e-003,8.22000e+000,6.51367e-001,8.22000e+000,6.09595e-001,8.22000e+000,-3.23378e-001,8.22000e+000,-3.15504e-001,8.22000e+000,4.34570e-002
5.49000e-001,-3.96292e-003,8.23500e+000,6.50669e-001,8.23500e+000,6.08505e-001,8.23500e+000,-3.24832e-001,8.23500e+000,-3.17546e-001,8.23500e+000,4.34570e-002
5.50000e-001,-1.15145e-004,8.25000e+000,6.49946e-001,8.25000e+000,6.07706e-001,8.25000e+000,-3.26124e-001,8.25000e+000,-3.19229e-001,8.25000e+000,4.34570e-002
5.51000e-001,3.35497e-003,8.26500e+000,6.49126e-001,8.26500e+000,6.06998e-001,8.26500e+000,-3.27220e-001,8.26500e+000,-3.21116e-001,8.26500e+000,4.34570e-002
5.52000e-001,6.72035e-003,8.28000e+000,6.48275e-001,8.28000e+000,6.06025e-001,8.28000e+000,-3.28642e-001,8.28000e+000,-3.23214e-001,8.28000e+000,4.34570e-002
5.53000e-001,9.87121e-003,8.29500e+000,6.47735e-001,8.29500e+000,6.04664e-001,8.29500e+000,-3.30631e-001,8.29500e+000,-3.24814e-001,8.29500e+000,4.34570e-002
5.54000e-001,1.07954e-002,8.31000e+000,6.46818e-001,8.31000e+000,6.02171e-001,8.31000e+000,-3.34715e-001,8.31000e+000,-3.27081e-001,8.31000e+000,4.26025e-002
5.55000e-001,1.03321e-002,8.32500e+000,6.46409e-001,8.32500e+000,6.01158e-001,8.32500e+000,-3.36264e-001,8.32500e+000,-3.28163e-001,8.32500e+000,4.22363e-002
5.56000e-001,8.12222e-003,8.34000e+000,6.45857e-001,8.34000e+000,6.00327e-001,8.34000e+000,-3.37423e-001,8.34000e+000,-3.29578e-001,8.34000e+000,4.22363e-002
5.57000e-001,4.88341e-003,8.35500e+000,6.45083e-001,8.35500e+000,5.99386e-001,8.35500e+000,-3.38735e-001,8.35500e+000,-3.31455e-001,8.35500e+000,4.22363e-002
5.58000e-001,1.57006e-003,8.37000e+000,6.44468e-001,8.37000e+000,5.98605e-001,8.37000e+000,-3.39775e-001,8.37000e+000,-3.32996e-001,8.37000e+000,4.22363e-002
5.59000e-001,-1.69763e-003,8.38500e+000,6.43694e-001,8.38500e+000,5.97492e-001,8.38500e+000,-3.41574e-001,8.38500e+000,-3.34646e-001,8.38500e+000,4.22363e-002
5.60000e-001,-4.99620e-003,8.40000e+000,6.42679e-001,8.40000e+000,5.96247e-001,8.40000e+000,-3.43629e-001,8.40000e+000,-3.36708e-001,8.40000e+000,4.22363e-002
5.61000e-001,-8.87688e-003,8.41500e+000,6.40976e-001,8.41500e+000,5.95076e-001,8.41500e+000,-3.45726e-001,8.41500e+000,-3.39864e-001,8.41500e+000,4.22363e-002
5.62000e-001,-1.09797e-002,8.43000e+000,6.39852e-001,8.43000e+000,5.94839e-001,8.43000e+000,-3.45845e-001,8.43000e+000,-3.42268e-001,8.43000e+000,4.22363e-002
5.63000e-001,-1.08827e-002,8.44500e+000,6.38665e-001,8.44500e+000,5.94607e-001,8.44500e+000,-3.45768e-001,8.44500e+000,-3.44955e-001,8.44500e+000,4.22363e-002
5.64000e-001,-1.00767e-002,8.46000e+000,6.37525e-001,8.46000e+000,5.93946e-001,8.46000e+000,-3.46746e-001,8.46000e+000,-3.47214e-001,8.46000e+000,4.22363e-002
5.65000e-001,-6.68611e-003,8.47500e+000,6.36611e-001,8.47500e+000,5.92725e-001,8.47500e+000,-3.48597e-001,8.47500e+000,-3.49118e-001,8.47500e+000,4.22363e-002
5.66000e-001,-2.63120e-003,8.49000e+000,6.34726e-001,8.49000e+000,5.91627e-001,8.49000e+000,-3.50215e-001,8.49000e+000,-3.52773e-001,8.49000e+000,4.22363e-002
5.67000e-001,1.07054e-003,8.50500e+000,6.32873e-001,8.50500e+000,5.91637e-001,8.50500e+000,-3.50018e-001,8.50500e+000,-3.56266e-001,8.50500e+000,4.22363e-002
5.68000e-001,4.49332e-003,8.52000e+000,6.31127e-001,8.52000e+000,5.91993e-001,8.52000e+000,-3.49121e-001,8.52000e+000,-3.59634e-001,8.52000e+000,4.22363e-002
5.69000e-001,7.86978e-003,8.53500e+000,6.28888e-001,8.53500e+000,5.92420e-001,8.53500e+000,-3.48220e-001,8.53500e+000,-3.63704e-001,8.53500e+000,4.22363e-002
5.70000e-001,1.04775e-002,8.55000e+000,6.27508e-001,8.55000e+000,5.92586e-001,8.55000e+000,-3.47874e-001,8.55000e+000,-3.66140e-001,8.55000e+000,4.22363e-002
5.71000e-001,1.07152e-002,8.56500e+000,6.26679e-001,8.56500e+000,5.91947e-001,8.56500e+000,-3.48631e-001,8.56500e+000,-3.67870e-001,8.56500e+000,4.22363e-002
5.72000e-001,9.82791e-003,8.58000e+000,6.26687e-001,8.58000e+000,5.90790e-001,8.58000e+000,-3.50248e-001,8.58000e+000,-3.68180e-001,8.58000e+000,4.22363e-002
5.73000e-001,7.09364e-003,8.59500e+000,6.26994e-001,8.59500e+000,5.88825e-001,8.59500e+000,-3.52982e-001,8.59500e+000,-3.68195e-001,8.59500e+000,4.22363e-002
5.74000e-001,3.79138e-003,8.61000e+000,6.27390e-001,8.61000e+000,5.87077e-001,8.61000e+000,-3.55446e-001,8.61000e+000,-3.67941e-001,8.61000e+000,4.22363e-002
5.75000e-001,4.92470e-004,8.62500e+000,6.27747e-001,8.62500e+000,5.85486e-001,8.62500e+000,-3.57922e-001,8.62500e+000,-3.67466e-001,8.62500e+000,4.22363e-002
5.76000e-001,-2.77858e-003,8.64000e+000,6.27893e-001,8.64000e+000,5.83502e-001,8.64000e+000,-3.60855e-001,8.64000e+000,-3.67504e-001,8.64000e+000,4.22363e-002
5.77000e-001,-6.24231e-003,8.65500e+000,6.27421e-001,8.65500e+000,5.82715e-001,8.65500e+000,-3.61865e-001,8.65500e+000,-3.68563e-001,8.65500e+000,4.22363e-002
5.78000e-001,-1.00142e-002,8.67000e+000,6.25948e-001,8.67000e+000,5.82782e-001,8.67000e+000,-3.61563e-001,8.67000e+000,-3.71248e-001,8.67000e+000,4.22363e-002
5.79000e-001,-1.09854e-002,8.68500e+000,6.24615e-001,8.68500e+000,5.82916e-001,8.68500e+000,-3.60966e-001,8.68500e+000,-3.73856e-001,8.68500e+000,4.22363e-002
5.80000e-001,-1.08008e-002,8.70000e+000,6.23201e-001,8.70000e+000,5.83384e-001,8.70000e+000,-3.60259e-001,8.70000e+000,-3.76160e-001,8.70000e+000,4.22363e-002
5.81000e-001,-9.19579e-003,8.71500e+000,6.21722e-001,8.71500e+000,5.83646e-001,8.71500e+000,-3.59685e-001,8.71500e+000,-3.78741e-001,8.71500e+000,4.22363e-002
5.82000e-001,-5.33223e-003,8.73000e+000,6.20789e-001,8.73000e+000,5.83586e-001,8.73000e+000,-3.59681e-001,8.73000e+000,-3.80365e-001,8.73000e+000,4.22363e-002
5.83000e-001,-1.35589e-003,8.74500e+000,6.20031e-001,8.74500e+000,5.82917e-001,8.74500e+000,-3.60510e-001,8.74500e+000,-3.81839e-001,8.74500e+000,4.22363e-002
5.84000e-001,2.22232e-003,8.76000e+000,6.19861e-001,8.76000e+000,5.82034e-001,8.76000e+000,-3.61704e-001,8.76000e+000,-3.82332e-001,8.76000e+000,4.22363e-002
5.85000e-001,5.58804e-003,8.77500e+000,6.19944e-001,8.77500e+000,5.80938e-001,8.77500e+000,-3.63173e-001,8.77500e+000,-3.82472e-001,8.77500e+000,4.22363e-002
5.86000e-001,8.94804e-003,8.79000e+000,6.20407e-001,8.79000e+000,5.79178e-001,8.79000e+000,-3.65488e-001,8.79000e+000,-3.82187e-001,8.79000e+000,4.22363e-002
5.87000e-001,1.07541e-002,8.80500e+000,6.20829e-001,8.80500e+000,5.77659e-001,8.80500e+000,-3.67632e-001,8.80500e+000,-3.81743e-001,8.80500e+000,4.22363e-002
5.88000e-001,1.05903e-002,8.82000e+000,6.21246e-001,8.82000e+000,5.75898e-001,8.82000e+000,-3.70323e-001,8.82000e+000,-3.81125e-001,8.82000e+000,4.22363e-002
5.89000e-001,9.05547e-003,8.83500e+000,6.21312e-001,8.83500e+000,5.74816e-001,8.83500e+000,-3.71769e-001,8.83500e+000,-3.81241e-001,8.83500e+000,4.22363e-002
5.90000e-001,5.98450e-003,8.85000e+000,6.20446e-001,8.85000e+000,5.74473e-001,8.85000e+000,-3.72095e-001,8.85000e+000,-3.82847e-001,8.85000e+000,4.22363e-002
5.91000e-001,2.66444e-003,8.86500e+000,6.19423e-001,8.86500e+000,5.74704e-001,8.86500e+000,-3.71527e-001,8.86500e+000,-3.84704e-001,8.86500e+000,4.22363e-002
5.92000e-001,-5.89151e-004,8.88000e+000,6.18059e-001,8.88000e+000,5.74948e-001,8.88000e+000,-3.70997e-001,8.88000e+000,-3.87038e-001,8.88000e+000,4.22363e-002
5.93000e-001,-3.85751e-003,8.89500e+000,6.16448e-001,8.89500e+000,5.75291e-001,8.89500e+000,-3.70389e-001,8.89500e+000,-3.89672e-001,8.89500e+000,4.22363e-002
5.94000e-001,-7.55691e-003,8.91000e+000,6.15446e-001,8.91000e+000,5.75400e-001,8.91000e+000,-3.70232e-001,8.91000e+000,-3.91240e-001,8.91000e+000,4.22363e-002
5.95000e-001,-1.07417e-002,8.92500e+000,6.14494e-001,8.92500e+000,5.75112e-001,8.92500e+000,-3.70462e-001,8.92500e+000,-3.92938e-001,8.92500e+000,4.11377e-002
5.96000e-001,-1.09871e-002,8.94000e+000,6.14143e-001,8.94000e+000,5.74757e-001,8.94000e+000,-3.70862e-001,8.94000e+000,-3.93628e-001,8.94000e+000,3.96729e-002
5.97000e-001,-1.05993e-002,8.95500e+000,6.14080e-001,8.95500e+000,5.74235e-001,8.95500e+000,-3.71488e-001,8.95500e+000,-3.93898e-001,8.95500e+000,3.96729e-002
5.98000e-001,-8.02185e-003,8.97000e+000,6.14188e-001,8.97000e+000,5.73122e-001,8.97000e+000,-3.72911e-001,8.97000e+000,-3.94006e-001,8.97000e+000,3.96729e-002
5.99000e-001,-3.99481e-003,8.98500e+000,6.14560e-001,8.98500e+000,5.72091e-001,8.98500e+000,-3.74214e-001,8.98500e+000,-3.93689e-001,8.98500e+000,3.96729e-002
6.00000e-001,-1.39315e-004,9.00000e+000,6.15247e-001,9.00000e+000,5.70407e-001,9.00000e+000,-3.76457e-001,9.00000e+000,-3.92920e-001,9.00000e+000,3.96729e-002
6.01000e-001,3.35531e-003,9.01500e+000,6.15602e-001,9.01500e+000,5.69191e-001,9.01500e+000,-3.78273e-001,9.01500e+000,-3.92385e-001,9.01500e+000,3.96729e-002
6.02000e-001,6.71766e-003,9.03000e+000,6.15713e-001,9.03000e+000,5.67881e-001,9.03000e+000,-3.80103e-001,9.03000e+000,-3.92338e-001,9.03000e+000,3.96729e-002
6.03000e-001,9.85309e-003,9.04500e+000,6.15281e-001,9.04500e+000,5.67601e-001,9.04500e+000,-3.80422e-001,9.04500e+000,-3.93112e-001,9.04500e+000,3.96729e-002
6.04000e-001,1.07957e-002,9.06000e+000,6.14463e-001,9.06000e+000,5.67821e-001,9.06000e+000,-3.79925e-001,9.06000e+000,-3.94551e-001,9.06000e+000,3.96729e-002
6.05000e-001,1.03264e-002,9.07500e+000,6.13030e-001,9.07500e+000,5.68279e-001,9.07500e+000,-3.79023e-001,9.07500e+000,-3.96981e-001,9.07500e+000,3.96729e-002
6.06000e-001,8.12357e-003,9.09000e+000,6.11977e-001,9.09000e+000,5.68705e-001,9.09000e+000,-3.78318e-001,9.09000e+000,-3.98665e-001,9.09000e+000,3.96729e-002
6.07000e-001,4.92335e-003,9.10500e+000,6.10685e-001,9.10500e+000,5.68973e-001,9.10500e+000,-3.77982e-001,9.10500e+000,-4.00577e-001,9.10500e+000,3.96729e-002
6.08000e-001,1.60531e-003,9.12000e+000,6.10107e-001,9.12000e+000,5.68989e-001,9.12000e+000,-3.77917e-001,9.12000e+000,-4.01495e-001,9.12000e+000,3.96729e-002
6.09000e-001,-1.66204e-003,9.13500e+000,6.09609e-001,9.13500e+000,5.68704e-001,9.13500e+000,-3.78272e-001,9.13500e+000,-4.02321e-001,9.13500e+000,3.96729e-002
6.10000e-001,-4.99116e-003,9.15000e+000,6.09343e-001,9.15000e+000,5.68041e-001,9.15000e+000,-3.79038e-001,9.15000e+000,-4.02938e-001,9.15000e+000,3.96729e-002
6.11000e-001,-8.88896e-003,9.16500e+000,6.09398e-001,9.16500e+000,5.67308e-001,9.16500e+000,-3.79921e-001,9.16500e+000,-4.03057e-001,9.16500e+000,3.96729e-002
6.12000e-001,-1.09790e-002,9.18000e+000,6.09837e-001,9.18000e+000,5.66025e-001,9.18000e+000,-3.81458e-001,9.18000e+000,-4.02744e-001,9.18000e+000,3.96729e-002
6.13000e-001,-1.08850e-002,9.19500e+000,6.10294e-001,9.19500e+000,5.64858e-001,9.19500e+000,-3.83044e-001,9.19500e+000,-4.02185e-001,9.19500e+000,3.96729e-002
6.14000e-001,-1.00787e-002,9.21000e+000,6.10820e-001,9.21000e+000,5.63419e-001,9.21000e+000,-3.85108e-001,9.21000e+000,-4.01434e-001,9.21000e+000,3.96729e-002
6.15000e-001,-6.70692e-003,9.22500e+000,6.11100e-001,9.22500e+000,5.62568e-001,9.22500e+000,-3.86281e-001,9.22500e+000,-4.01073e-001,9.22500e+000,3.96729e-002
6.16000e-001,-2.66310e-003,9.24000e+000,6.10949e-001,9.24000e+000,5.62172e-001,9.24000e+000,-3.86745e-001,9.24000e+000,-4.01412e-001,9.24000e+000,3.96729e-002
6.17000e-001,1.02354e-003,9.25500e+000,6.09948e-001,9.25500e+000,5.62373e-001,9.25500e+000,-3.86332e-001,9.25500e+000,-4.03046e-001,9.25500e+000,3.96729e-002
6.18000e-001,4.46714e-003,9.27000e+000,6.08979e-001,9.27000e+000,5.62769e-001,9.27000e+000,-3.85705e-001,9.27000e+000,-4.04555e-001,9.27000e+000,3.96729e-002
6.19000e-001,7.85299e-003,9.28500e+000,6.07604e-001,9.28500e+000,5.63372e-001,9.28500e+000,-3.84782e-001,9.28500e+000,-4.06657e-001,9.28500e+000,3.96729e-002
6.20000e-001,1.04500e-002,9.30000e+000,6.06762e-001,9.30000e+000,5.63639e-001,9.30000e+000,-3.84380e-001,9.30000e+000,-4.07922e-001,9.30000e+000,3.96729e-002
6.21000e-001,1.07199e-002,9.31500e+000,6.06056e-001,9.31500e+000,5.63587e-001,9.31500e+000,-3.84403e-001,9.31500e+000,-4.09020e-001,9.31500e+000,3.96729e-002
6.22000e-001,9.81146e-003,9.33000e+000,6.05601e-001,9.33000e+000,5.63347e-001,9.33000e+000,-3.84624e-001,9.33000e+000,-4.09817e-001,9.33000e+000,3.96729e-002
6.23000e-001,7.09499e-003,9.34500e+000,6.05433e-001,9.34500e+000,5.62831e-001,9.34500e+000,-3.85206e-001,9.34500e+000,-4.10229e-001,9.34500e+000,3.96729e-002
6.24000e-001,3.81689e-003,9.36000e+000,6.05626e-001,9.36000e+000,5.61999e-001,9.36000e+000,-3.86204e-001,9.36000e+000,-4.10145e-001,9.36000e+000,3.96729e-002
6.25000e-001,5.23354e-004,9.37500e+000,6.06214e-001,9.37500e+000,5.61301e-001,9.37500e+000,-3.87021e-001,9.37500e+000,-4.09462e-001,9.37500e+000,3.96729e-002
6.26000e-001,-2.74031e-003,9.39000e+000,6.06735e-001,9.39000e+000,5.60245e-001,9.39000e+000,-3.88384e-001,9.39000e+000,-4.08846e-001,9.39000e+000,3.96729e-002
6.27000e-001,-6.16410e-003,9.40500e+000,6.07252e-001,9.40500e+000,5.58969e-001,9.40500e+000,-3.90155e-001,9.40500e+000,-4.08137e-001,9.40500e+000,3.96729e-002
6.28000e-001,-9.94171e-003,9.42000e+000,6.07504e-001,9.42000e+000,5.58200e-001,9.42000e+000,-3.91145e-001,9.42000e+000,-4.07868e-001,9.42000e+000,3.96729e-002
6.29000e-001,-1.09854e-002,9.43500e+000,6.07140e-001,9.43500e+000,5.57847e-001,9.43500e+000,-3.91515e-001,9.43500e+000,-4.08537e-001,9.43500e+000,3.96729e-002
6.30000e-001,-1.08024e-002,9.45000e+000,6.06449e-001,9.45000e+000,5.58100e-001,9.45000e+000,-3.91098e-001,9.45000e+000,-4.09615e-001,9.45000e+000,3.96729e-002
6.31000e-001,-9.20452e-003,9.46500e+000,6.05402e-001,9.46500e+000,5.58584e-001,9.46500e+000,-3.90162e-001,9.46500e+000,-4.11392e-001,9.46500e+000,3.96729e-002
6.32000e-001,-5.37990e-003,9.48000e+000,6.04462e-001,9.48000e+000,5.59035e-001,9.48000e+000,-3.89524e-001,9.48000e+000,-4.12765e-001,9.48000e+000,3.96729e-002
6.33000e-001,-1.41967e-003,9.49500e+000,6.03599e-001,9.49500e+000,5.59306e-001,9.49500e+000,-3.89156e-001,9.49500e+000,-4.14005e-001,9.49500e+000,3.96729e-002
6.34000e-001,2.14948e-003,9.51000e+000,6.02844e-001,9.51000e+000,5.59321e-001,9.51000e+000,-3.89069e-001,9.51000e+000,-4.15164e-001,9.51000e+000,3.96729e-002
6.35000e-001,5.54809e-003,9.52500e+000,6.02503e-001,9.52500e+000,5.59139e-001,9.52500e+000,-3.89327e-001,9.52500e+000,-4.15664e-001,9.52500e+000,3.96729e-002
6.36000e-001,8.93462e-003,9.54000e+000,6.02604e-001,9.54000e+000,5.58547e-001,9.54000e+000,-3.89969e-001,9.54000e+000,-4.15712e-001,9.54000e+000,3.96729e-002
6.37000e-001,1.07494e-002,9.55500e+000,6.02931e-001,9.55500e+000,5.57805e-001,9.55500e+000,-3.90833e-001,9.55500e+000,-4.15422e-001,9.55500e+000,3.96729e-002
6.38000e-001,1.05930e-002,9.57000e+000,6.03492e-001,9.57000e+000,5.56959e-001,9.57000e+000,-3.91904e-001,9.57000e+000,-4.14733e-001,9.57000e+000,3.96729e-002
6.39000e-001,9.06621e-003,9.58500e+000,6.04039e-001,9.58500e+000,5.55654e-001,9.58500e+000,-3.93652e-001,9.58500e+000,-4.14031e-001,9.58500e+000,3.96729e-002
6.40000e-001,6.02679e-003,9.60000e+000,6.04321e-001,9.60000e+000,5.54884e-001,9.60000e+000,-3.94773e-001,9.60000e+000,-4.13585e-001,9.60000e+000,3.96729e-002
6.41000e-001,2.73896e-003,9.61500e+000,6.04378e-001,9.61500e+000,5.54291e-001,9.61500e+000,-3.95498e-001,9.61500e+000,-4.13604e-001,9.61500e+000,3.96729e-002
6.42000e-001,-5.11940e-004,9.63000e+000,6.03996e-001,9.63000e+000,5.54379e-001,9.63000e+000,-3.95329e-001,9.63000e+000,-4.14205e-001,9.63000e+000,3.96729e-002
6.43000e-001,-3.82260e-003,9.64500e+000,6.03053e-001,9.64500e+000,5.54695e-001,9.64500e+000,-3.94703e-001,9.64500e+000,-4.15750e-001,9.64500e+000,3.96729e-002
6.44000e-001,-7.51427e-003,9.66000e+000,6.02205e-001,9.66000e+000,5.55046e-001,9.66000e+000,-3.94107e-001,9.66000e+000,-4.17074e-001,9.66000e+000,3.96729e-002
6.45000e-001,-1.06977e-002,9.67500e+000,6.01369e-001,9.67500e+000,5.55538e-001,9.67500e+000,-3.93431e-001,9.67500e+000,-4.18260e-001,9.67500e+000,3.96729e-002
6.46000e-001,-1.09867e-002,9.69000e+000,6.00626e-001,9.69000e+000,5.55824e-001,9.69000e+000,-3.92952e-001,9.69000e+000,-4.19397e-001,9.69000e+000,3.96729e-002
6.47000e-001,-1.05950e-002,9.70500e+000,6.00313e-001,9.70500e+000,5.55725e-001,9.70500e+000,-3.93017e-001,9.70500e+000,-4.19915e-001,9.70500e+000,3.96729e-002
6.48000e-001,-8.03796e-003,9.72000e+000,6.00124e-001,9.72000e+000,5.55264e-001,9.72000e+000,-3.93583e-001,9.72000e+000,-4.20265e-001,9.72000e+000,3.96729e-002
6.49000e-001,-4.04147e-003,9.73500e+000,6.00196e-001,9.73500e+000,5.54579e-001,9.73500e+000,-3.94437e-001,9.73500e+000,-4.20267e-001,9.73500e+000,3.96729e-002
6.50000e-001,-2.06790e-004,9.75000e+000,6.00579e-001,9.75000e+000,5.53748e-001,9.75000e+000,-3.95457e-001,9.75000e+000,-4.19855e-001,9.75000e+000,3.96729e-002
6.51000e-001,3.28615e-003,9.76500e+000,6.01170e-001,9.76500e+000,5.52645e-001,9.76500e+000,-3.96965e-001,9.76500e+000,-4.19039e-001,9.76500e+000,3.96729e-002
6.52000e-001,6.64448e-003,9.78000e+000,6.01544e-001,9.78000e+000,5.51929e-001,9.78000e+000,-3.97885e-001,9.78000e+000,-4.18575e-001,9.78000e+000,3.96729e-002
6.53000e-001,9.78527e-003,9.79500e+000,6.01771e-001,9.79500e+000,5.51341e-001,9.79500e+000,-3.98652e-001,9.79500e+000,-4.18293e-001,9.79500e+000,3.96729e-002
6.54000e-001,1.07910e-002,9.81000e+000,6.01452e-001,9.81000e+000,5.51133e-001,9.81000e+000,-3.98915e-001,9.81000e+000,-4.18776e-001,9.81000e+000,3.96729e-002
6.55000e-001,1.03231e-002,9.82500e+000,6.00960e-001,9.82500e+000,5.51274e-001,9.82500e+000,-3.98593e-001,9.82500e+000,-4.19602e-001,9.82500e+000,3.96729e-002
6.56000e-001,8.13162e-003,9.84000e+000,6.00226e-001,9.84000e+000,5.51806e-001,9.84000e+000,-3.97700e-001,9.84000e+000,-4.20798e-001,9.84000e+000,3.96729e-002
6.57000e-001,4.95055e-003,9.85500e+000,5.99615e-001,9.85500e+000,5.52288e-001,9.85500e+000,-3.96881e-001,9.85500e+000,-4.21809e-001,9.85500e+000,3.96729e-002
6.58000e-001,1.65130e-003,9.87000e+000,5.98836e-001,9.87000e+000,5.52810e-001,9.87000e+000,-3.96181e-001,9.87000e+000,-4.22889e-001,9.87000e+000,3.96729e-002
6.59000e-001,-1.59155e-003,9.88500e+000,6.00625e-001,9.88500e+000,5.51683e-001,9.88500e+000,-3.95025e-001,9.88500e+000,-4.22903e-001,9.88500e+000,3.96729e-002
6.60000e-001,-4.90523e-003,9.90000e+000,6.09055e-001,9.90000e+000,5.52583e-001,9.90000e+000,-3.87953e-001,9.90000e+000,-4.16168e-001,9.90000e+000,3.96729e-002
6.61000e-001,-8.78557e-003,9.91500e+000,6.08364e-001,9.91500e+000,5.58004e-001,9.91500e+000,-3.85541e-001,9.91500e+000,-4.12167e-001,9.91500e+000,3.96729e-002
6.62000e-001,-1.09757e-002,9.93000e+000,6.09300e-001,9.93000e+000,5.60480e-001,9.93000e+000,-3.82553e-001,9.93000e+000,-4.10204e-001,9.93000e+000,3.96729e-002
6.63000e-001,-1.08921e-002,9.94500e+000,6.10675e-001,9.94500e+000,5.63354e-001,9.94500e+000,-3.78327e-001,9.94500e+000,-4.08137e-001,9.94500e+000,3.96729e-002
6.64000e-001,-1.00898e-002,9.96000e+000,6.11274e-001,9.96000e+000,5.64855e-001,9.96000e+000,-3.75771e-001,9.96000e+000,-4.07525e-001,9.96000e+000,3.96729e-002
6.65000e-001,-6.78279e-003,9.97500e+000,6.10772e-001,9.97500e+000,5.60667e-001,9.97500e+000,-3.76108e-001,9.97500e+000,-4.13704e-001,9.97500e+000,3.96729e-002
6.66000e-001,-2.77723e-003,9.99000e+000,6.14089e-001,9.99000e+000,5.53695e-001,9.99000e+000,-3.76276e-001,9.99000e+000,-4.18009e-001,9.99000e+000,3.96729e-002
6.67000e-001,9.16793e-004,1.00050e+001,6.17913e-001,1.00050e+001,5.46507e-001,1.00050e+001,-3.75721e-001,1.00050e+001,-4.22311e-001,1.00050e+001,3.96729e-002
6.68000e-001,4.38523e-003,1.00200e+001,6.21511e-001,1.00200e+001,5.37592e-001,1.00200e+001,-3.73346e-001,1.00200e+001,-4.30501e-001,1.00200e+001,3.96729e-002
6.69000e-001,7.77981e-003,1.00350e+001,6.25609e-001,1.00350e+001,5.29621e-001,1.00350e+001,-3.70169e-001,1.00350e+001,-4.37139e-001,1.00350e+001,3.96729e-002
6.70000e-001,1.04036e-002,1.00500e+001,6.37067e-001,1.00500e+001,5.12598e-001,1.00500e+001,-3.62347e-001,1.00500e+001,-4.47317e-001,1.00500e+001,3.96729e-002
6.71000e-001,1.07283e-002,1.00650e+001,6.47711e-001,1.00650e+001,4.99431e-001,1.00650e+001,-3.51875e-001,1.00650e+001,-4.55217e-001,1.00650e+001,3.79639e-002
6.72000e-001,9.83160e-003,1.00800e+001,6.62135e-001,1.00800e+001,4.82588e-001,1.00800e+001,-3.34977e-001,1.00800e+001,-4.65270e-001,1.00800e+001,3.79639e-002
6.73000e-001,7.16851e-003,1.00950e+001,6.71095e-001,1.00950e+001,4.72332e-001,1.00950e+001,-3.22544e-001,1.00950e+001,-4.71678e-001,1.00950e+001,3.79639e-002
6.74000e-001,3.91727e-003,1.01100e+001,6.80647e-001,1.01100e+001,4.61008e-001,1.01100e+001,-3.09959e-001,1.01100e+001,-4.77609e-001,1.01100e+001,3.79639e-002
6.75000e-001,6.36820e-004,1.01250e+001,6.94904e-001,1.01250e+001,4.43143e-001,1.01250e+001,-2.91138e-001,1.01250e+001,-4.85769e-001,1.01250e+001,3.84521e-002
6.76000e-001,-2.64698e-003,1.01400e+001,7.06303e-001,1.01400e+001,4.27925e-001,1.01400e+001,-2.74751e-001,1.01400e+001,-4.92469e-001,1.01400e+001,3.84521e-002
6.77000e-001,-6.11542e-003,1.01550e+001,7.24160e-001,1.01550e+001,4.02775e-001,1.01550e+001,-2.49320e-001,1.01550e+001,-5.01201e-001,1.01550e+001,3.91846e-002
6.78000e-001,-9.88129e-003,1.01700e+001,7.38658e-001,1.01700e+001,3.80541e-001,1.01700e+001,-2.27094e-001,1.01700e+001,-5.07923e-001,1.01700e+001,4.00391e-002
6.79000e-001,-1.09851e-002,1.01850e+001,7.53317e-001,1.01850e+001,3.56405e-001,1.01850e+001,-2.05971e-001,1.01850e+001,-5.12898e-001,1.01850e+001,4.00391e-002
6.80000e-001,-1.08051e-002,1.02000e+001,7.66208e-001,1.02000e+001,3.26872e-001,1.02000e+001,-1.85830e-001,1.02000e+001,-5.21101e-001,1.02000e+001,4.15039e-002
6.81000e-001,-9.20351e-003,1.02150e+001,7.70984e-001,1.02150e+001,3.08293e-001,1.02150e+001,-1.77810e-001,1.02150e+001,-5.28131e-001,1.02150e+001,4.15039e-002
6.82000e-001,-5.44201e-003,1.02300e+001,7.74162e-001,1.02300e+001,2.87938e-001,1.02300e+001,-1.71116e-001,1.02300e+001,-5.37107e-001,1.02300e+001,4.15039e-002
6.83000e-001,-1.51366e-003,1.02450e+001,7.76185e-001,1.02450e+001,2.75185e-001,1.02450e+001,-1.66110e-001,1.02450e+001,-5.42418e-001,1.02450e+001,4.15039e-002
6.84000e-001,2.06690e-003,1.02600e+001,7.77202e-001,1.02600e+001,2.64616e-001,1.02600e+001,-1.63225e-001,1.02600e+001,-5.47077e-001,1.02600e+001,4.16260e-002
6.85000e-001,5.45275e-003,1.02750e+001,7.80226e-001,1.02750e+001,2.49842e-001,1.02750e+001,-1.59430e-001,1.02750e+001,-5.50825e-001,1.02750e+001,4.15039e-002
6.86000e-001,8.78154e-003,1.02900e+001,7.82751e-001,1.02900e+001,2.38058e-001,1.02900e+001,-1.55888e-001,1.02900e+001,-5.53469e-001,1.02900e+001,4.15039e-002
6.87000e-001,1.06883e-002,1.03050e+001,7.85582e-001,1.03050e+001,2.22886e-001,1.03050e+001,-1.47310e-001,1.03050e+001,-5.58106e-001,1.03050e+001,4.15039e-002
6.88000e-001,1.05983e-002,1.03200e+001,7.85616e-001,1.03200e+001,2.16104e-001,1.03200e+001,-1.41335e-001,1.03200e+001,-5.62255e-001,1.03200e+001,4.15039e-002
6.89000e-001,9.04137e-003,1.03350e+001,7.85750e-001,1.03350e+001,2.11461e-001,1.03350e+001,-1.39161e-001,1.03350e+001,-5.64371e-001,1.03350e+001,4.15039e-002
6.90000e-001,6.08084e-003,1.03500e+001,7.85511e-001,1.03500e+001,2.08806e-001,1.03500e+001,-1.39331e-001,1.03500e+001,-5.65649e-001,1.03500e+001,4.15039e-002
6.91000e-001,2.81517e-003,1.03650e+001,7.84763e-001,1.03650e+001,2.06862e-001,1.03650e+001,-1.39469e-001,1.03650e+001,-5.67365e-001,1.03650e+001,4.15039e-002
6.92000e-001,-4.03510e-004,1.03800e+001,7.83507e-001,1.03800e+001,2.04096e-001,1.03800e+001,-1.39725e-001,1.03800e+001,-5.70033e-001,1.03800e+001,4.15039e-002
6.93000e-001,-3.69201e-003,1.03950e+001,7.81590e-001,1.03950e+001,1.99637e-001,1.03950e+001,-1.39744e-001,1.03950e+001,-5.74225e-001,1.03950e+001,4.15039e-002
6.94000e-001,-7.37429e-003,1.04100e+001,7.78208e-001,1.04100e+001,1.88683e-001,1.04100e+001,-1.38577e-001,1.04100e+001,-5.82740e-001,1.04100e+001,4.15039e-002
6.95000e-001,-1.05987e-002,1.04250e+001,7.76123e-001,1.04250e+001,1.79146e-001,1.04250e+001,-1.37698e-001,1.04250e+001,-5.88709e-001,1.04250e+001,4.16260e-002
6.96000e-001,-1.09867e-002,1.04400e+001,7.75608e-001,1.04400e+001,1.71201e-001,1.04400e+001,-1.36872e-001,1.04400e+001,-5.91937e-001,1.04400e+001,4.16260e-002
6.97000e-001,-1.05990e-002,1.04550e+001,7.76058e-001,1.04550e+001,1.65869e-001,1.04550e+001,-1.36516e-001,1.04550e+001,-5.92946e-001,1.04550e+001,4.16260e-002
6.98000e-001,-8.09873e-003,1.04700e+001,7.76462e-001,1.04700e+001,1.63063e-001,1.04700e+001,-1.35215e-001,1.04700e+001,-5.93492e-001,1.04700e+001,4.16260e-002
6.99000e-001,-4.15225e-003,1.04850e+001,7.76470e-001,1.04850e+001,1.60397e-001,1.04850e+001,-1.32889e-001,1.04850e+001,-5.94733e-001,1.04850e+001,4.16260e-002
7.00000e-001,-3.62890e-004,1.05000e+001,7.76093e-001,1.05000e+001,1.57848e-001,1.05000e+001,-1.31373e-001,1.05000e+001,-5.96242e-001,1.05000e+001,4.16260e-002
7.01000e-001,3.12502e-003,1.05150e+001,7.76403e-001,1.05150e+001,1.55633e-001,1.05150e+001,-1.29024e-001,1.05150e+001,-5.96933e-001,1.05150e+001,4.16260e-002
7.02000e-001,6.51087e-003,1.05300e+001,7.76819e-001,1.05300e+001,1.53554e-001,1.05300e+001,-1.27822e-001,1.05300e+001,-5.97190e-001,1.05300e+001,4.16260e-002
7.03000e-001,9.63085e-003,1.05450e+001,7.77094e-001,1.05450e+001,1.51079e-001,1.05450e+001,-1.26872e-001,1.05450e+001,-5.97665e-001,1.05450e+001,4.16260e-002
7.04000e-001,1.07830e-002,1.05600e+001,7.75494e-001,1.05600e+001,1.49115e-001,1.05600e+001,-1.25895e-001,1.05600e+001,-6.00437e-001,1.05600e+001,4.16260e-002
7.05000e-001,1.03043e-002,1.05750e+001,7.72849e-001,1.05750e+001,1.48251e-001,1.05750e+001,-1.25982e-001,1.05750e+001,-6.04032e-001,1.05750e+001,4.16260e-002
7.06000e-001,8.13162e-003,1.05900e+001,7.69998e-001,1.05900e+001,1.48564e-001,1.05900e+001,-1.25352e-001,1.05900e+001,-6.07716e-001,1.05900e+001,4.16260e-002
7.07000e-001,5.04152e-003,1.06050e+001,7.68210e-001,1.06050e+001,1.48659e-001,1.06050e+001,-1.24334e-001,1.06050e+001,-6.10160e-001,1.06050e+001,4.16260e-002
7.08000e-001,1.78759e-003,1.06200e+001,7.67469e-001,1.06200e+001,1.49266e-001,1.06200e+001,-1.22739e-001,1.06200e+001,-6.11266e-001,1.06200e+001,4.16260e-002
7.09000e-001,-1.46532e-003,1.06350e+001,7.67065e-001,1.06350e+001,1.48771e-001,1.06350e+001,-1.21108e-001,1.06350e+001,-6.12219e-001,1.06350e+001,4.16260e-002
7.10000e-001,-4.78404e-003,1.06500e+001,7.67506e-001,1.06500e+001,1.48364e-001,1.06500e+001,-1.19572e-001,1.06500e+001,-6.12066e-001,1.06500e+001,4.16260e-002
7.11000e-001,-8.62745e-003,1.06650e+001,7.68614e-001,1.06650e+001,1.47228e-001,1.06650e+001,-1.18145e-001,1.06650e+001,-6.11227e-001,1.06650e+001,4.16260e-002
7.12000e-001,-1.09518e-002,1.06800e+001,7.69080e-001,1.06800e+001,1.46010e-001,1.06800e+001,-1.17402e-001,1.06800e+001,-6.11076e-001,1.06800e+001,4.16260e-002
7.13000e-001,-1.09025e-002,1.06950e+001,7.69293e-001,1.06950e+001,1.44471e-001,1.06950e+001,-1.16441e-001,1.06950e+001,-6.11358e-001,1.06950e+001,4.16260e-002
7.14000e-001,-1.00605e-002,1.07100e+001,7.69677e-001,1.07100e+001,1.44686e-001,1.07100e+001,-1.15102e-001,1.07100e+001,-6.11076e-001,1.07100e+001,4.16260e-002
7.15000e-001,-6.82844e-003,1.07250e+001,7.70090e-001,1.07250e+001,1.43740e-001,1.07250e+001,-1.14445e-001,1.07250e+001,-6.10903e-001,1.07250e+001,4.16260e-002
7.16000e-001,-2.88029e-003,1.07400e+001,7.71457e-001,1.07400e+001,1.44597e-001,1.07400e+001,-1.11892e-001,1.07400e+001,-6.09448e-001,1.07400e+001,4.16260e-002
7.17000e-001,7.65057e-004,1.07550e+001,7.72044e-001,1.07550e+001,1.43623e-001,1.07550e+001,-1.10803e-001,1.07550e+001,-6.09133e-001,1.07550e+001,4.16260e-002
7.18000e-001,4.20798e-003,1.07700e+001,7.71988e-001,1.07700e+001,1.42535e-001,1.07700e+001,-1.09922e-001,1.07700e+001,-6.09619e-001,1.07700e+001,4.16260e-002
7.19000e-001,7.58645e-003,1.07850e+001,7.71443e-001,1.07850e+001,1.42425e-001,1.07850e+001,-1.08557e-001,1.07850e+001,-6.10578e-001,1.07850e+001,4.16260e-002
7.20000e-001,1.02156e-002,1.08000e+001,7.70578e-001,1.08000e+001,1.42613e-001,1.08000e+001,-1.06681e-001,1.08000e+001,-6.11956e-001,1.08000e+001,4.16260e-002
7.21000e-001,1.07454e-002,1.08150e+001,7.68718e-001,1.08150e+001,1.40478e-001,1.08150e+001,-1.07057e-001,1.08150e+001,-6.14717e-001,1.08150e+001,4.16260e-002
7.22000e-001,9.77084e-003,1.08300e+001,7.67601e-001,1.08300e+001,1.40851e-001,1.08300e+001,-1.06042e-001,1.08300e+001,-6.16201e-001,1.08300e+001,4.16260e-002
7.23000e-001,7.18025e-003,1.08450e+001,7.66017e-001,1.08450e+001,1.39825e-001,1.08450e+001,-1.05502e-001,1.08450e+001,-6.18496e-001,1.08450e+001,4.16260e-002
7.24000e-001,4.00757e-003,1.08600e+001,7.64422e-001,1.08600e+001,1.39084e-001,1.08600e+001,-1.05114e-001,1.08600e+001,-6.20697e-001,1.08600e+001,4.16260e-002
7.25000e-001,7.85199e-004,1.08750e+001,7.63001e-001,1.08750e+001,1.37508e-001,1.08750e+001,-1.05369e-001,1.08750e+001,-6.22750e-001,1.08750e+001,4.16260e-002
7.26000e-001,-2.46906e-003,1.08900e+001,7.61199e-001,1.08900e+001,1.35925e-001,1.08900e+001,-1.05627e-001,1.08900e+001,-6.25255e-001,1.08900e+001,4.16260e-002
7.27000e-001,-5.89151e-003,1.09050e+001,7.60101e-001,1.09050e+001,1.34203e-001,1.09050e+001,-1.05437e-001,1.09050e+001,-6.26993e-001,1.09050e+001,4.16260e-002
7.28000e-001,-9.62548e-003,1.09200e+001,7.58338e-001,1.09200e+001,1.31063e-001,1.09200e+001,-1.05161e-001,1.09200e+001,-6.29832e-001,1.09200e+001,4.16260e-002
7.29000e-001,-1.09844e-002,1.09350e+001,7.56987e-001,1.09350e+001,1.28461e-001,1.09350e+001,-1.05191e-001,1.09350e+001,-6.31984e-001,1.09350e+001,4.11377e-002
7.30000e-001,-1.08038e-002,1.09500e+001,7.55333e-001,1.09500e+001,1.25774e-001,1.09500e+001,-1.03468e-001,1.09500e+001,-6.34782e-001,1.09500e+001,3.96729e-002
7.31000e-001,-9.17766e-003,1.09650e+001,7.53236e-001,1.09650e+001,1.24425e-001,1.09650e+001,-1.00869e-001,1.09650e+001,-6.37950e-001,1.09650e+001,3.96729e-002
7.32000e-001,-5.51754e-003,1.09800e+001,7.50931e-001,1.09800e+001,1.23030e-001,1.09800e+001,-9.74395e-002,1.09800e+001,-6.41460e-001,1.09800e+001,3.96729e-002
7.33000e-001,-1.68219e-003,1.09950e+001,7.48016e-001,1.09950e+001,1.20313e-001,1.09950e+001,-9.11779e-002,1.09950e+001,-6.46284e-001,1.09950e+001,3.96729e-002
7.34000e-001,1.86279e-003,1.10100e+001,7.46692e-001,1.10100e+001,1.17735e-001,1.10100e+001,-8.78083e-002,1.10100e+001,-6.48752e-001,1.10100e+001,3.96729e-002
7.35000e-001,5.22716e-003,1.10250e+001,7.45982e-001,1.10250e+001,1.15268e-001,1.10250e+001,-8.43229e-002,1.10250e+001,-6.50472e-001,1.10250e+001,3.96729e-002
