# Label: Avanti Sensor 1: EMG 1 Sampling frequency: 1.000000e+003 Number of points: 21690 X start: 0.000000e+000 Unit: V Domain Unit: s
# Label: Avanti Sensor 1: Pitch 1 Sampling frequency: 6.666667e+001 Number of points: 1446 X start: 0.000000e+000 Unit: degrees Domain Unit: s
# Label: Avanti Sensor 1: Roll 1 Sampling frequency: 6.666667e+001 Number of points: 1446 X start: 0.000000e+000 Unit: degrees Domain Unit: s
# Label: Avanti Sensor 1: Yaw 1 Sampling frequency: 6.666667e+001 Number of points: 1446 X start: 0.000000e+000 Unit: degrees Domain Unit: s
# Start Trigger Method: None
# Stop Trigger Method: None
# Use Camera: NO
# Video File Path: 
# System Gain: 1.500000e+002
# A/D card Gain: 1.000000e+000
# Bit Resolution: -1.000000e+000
# Bias: 0.000000e+000
# High pass cutoff frequency: 0.000000e+000
# Low pass cutoff frequency: 0.000000e+000
# System Gain: 1.000000e+000
# A/D card Gain: 1.000000e+000
# Bit Resolution: -1.000000e+000
# Bias: 0.000000e+000
# High pass cutoff frequency: 0.000000e+000
# Low pass cutoff frequency: 0.000000e+000
# System Gain: 1.000000e+000
# A/D card Gain: 1.000000e+000
# Bit Resolution: -1.000000e+000
# Bias: 0.000000e+000
# High pass cutoff frequency: 0.000000e+000
# Low pass cutoff frequency: 0.000000e+000
# System Gain: 1.000000e+000
# A/D card Gain: 1.000000e+000
# Bit Resolution: -1.000000e+000
# Bias: 0.000000e+000
# High pass cutoff frequency: 0.000000e+000
# Low pass cutoff frequency: 0.000000e+000
X [s],Avanti Sensor 1: EMG 1 [V],X [s],Avanti Sensor 1: Pitch 1 [degrees],X [s],Avanti Sensor 1: Roll 1 [degrees],X [s],Avanti Sensor 1: Yaw 1 [degrees]
0.00000e+000,-8.17426e-004,0.00000e+000,-6.37862e+001,0.00000e+000,3.04195e+001,0.00000e+000,-8.13048e+001
1.00000e-003,-4.81459e-003,1.50000e-002,-6.47345e+001,1.50000e-002,3.00856e+001,1.50000e-002,-8.33467e+001
2.00000e-003,-8.83558e-003,3.00000e-002,-6.55977e+001,3.00000e-002,3.01353e+001,3.00000e-002,-8.45198e+001
3.00000e-003,-1.09827e-002,4.50000e-002,-6.64356e+001,4.50000e-002,3.06720e+001,4.50000e-002,-8.56802e+001
4.00000e-003,-1.08447e-002,6.00000e-002,-6.69879e+001,6.00000e-002,3.09826e+001,6.00000e-002,-8.62429e+001
5.00000e-003,-1.06927e-002,7.50000e-002,-6.73027e+001,7.50000e-002,3.14770e+001,7.50000e-002,-8.61889e+001
6.00000e-003,-1.05013e-002,9.00000e-002,-6.73069e+001,9.00000e-002,3.19930e+001,9.00000e-002,-8.56430e+001
7.00000e-003,-1.03120e-002,1.05000e-001,-6.74783e+001,1.05000e-001,3.20864e+001,1.05000e-001,-8.48735e+001
8.00000e-003,-1.01304e-002,1.20000e-001,-6.78075e+001,1.20000e-001,3.19533e+001,1.20000e-001,-8.44534e+001
9.00000e-003,-9.95312e-003,1.35000e-001,-6.83800e+001,1.35000e-001,3.17540e+001,1.35000e-001,-8.40589e+001
1.00000e-002,-9.78091e-003,1.50000e-001,-6.88233e+001,1.50000e-001,3.19225e+001,1.50000e-001,-8.39893e+001
1.10000e-002,-9.61340e-003,1.65000e-001,-6.91888e+001,1.65000e-001,3.23481e+001,1.65000e-001,-8.40649e+001
1.20000e-002,-9.44991e-003,1.80000e-001,-6.95773e+001,1.80000e-001,3.31106e+001,1.80000e-001,-8.43408e+001
1.30000e-002,-9.29146e-003,1.95000e-001,-6.97593e+001,1.95000e-001,3.37288e+001,1.95000e-001,-8.46615e+001
1.40000e-002,-9.13637e-003,2.10000e-001,-6.98091e+001,2.10000e-001,3.46526e+001,2.10000e-001,-8.50823e+001
1.50000e-002,-8.98497e-003,2.25000e-001,-6.98499e+001,2.25000e-001,3.52766e+001,2.25000e-001,-8.55025e+001
1.60000e-002,-8.72447e-003,2.40000e-001,-6.98413e+001,2.40000e-001,3.57857e+001,2.40000e-001,-8.60184e+001
1.70000e-002,-4.06027e-003,2.55000e-001,-6.98306e+001,2.55000e-001,3.63729e+001,2.55000e-001,-8.68845e+001
1.80000e-002,3.75076e-003,2.70000e-001,-6.98337e+001,2.70000e-001,3.67914e+001,2.70000e-001,-8.76700e+001
1.90000e-002,1.08058e-002,2.85000e-001,-6.97478e+001,2.85000e-001,3.72330e+001,2.85000e-001,-8.84812e+001
2.00000e-002,1.08750e-002,3.00000e-001,-6.96277e+001,3.00000e-001,3.74380e+001,3.00000e-001,-8.87938e+001
2.10000e-002,1.08756e-002,3.15000e-001,-6.93172e+001,3.15000e-001,3.74785e+001,3.15000e-001,-8.86427e+001
2.20000e-002,1.08760e-002,3.30000e-001,-6.90548e+001,3.30000e-001,3.75460e+001,3.30000e-001,-8.81821e+001
2.30000e-002,1.08746e-002,3.45000e-001,-6.88662e+001,3.45000e-001,3.76373e+001,3.45000e-001,-8.76363e+001
2.40000e-002,1.08746e-002,3.60000e-001,-6.86922e+001,3.60000e-001,3.77456e+001,3.60000e-001,-8.68419e+001
2.50000e-002,1.08763e-002,3.75000e-001,-6.84804e+001,3.75000e-001,3.79636e+001,3.75000e-001,-8.62991e+001
2.60000e-002,1.08770e-002,3.90000e-001,-6.81572e+001,3.90000e-001,3.81937e+001,3.90000e-001,-8.59119e+001
2.70000e-002,1.08763e-002,4.05000e-001,-6.78910e+001,4.05000e-001,3.82650e+001,4.05000e-001,-8.56492e+001
2.80000e-002,1.08763e-002,4.20000e-001,-6.76141e+001,4.20000e-001,3.82897e+001,4.20000e-001,-8.54613e+001
2.90000e-002,1.07810e-002,4.35000e-001,-6.73308e+001,4.35000e-001,3.81605e+001,4.35000e-001,-8.51591e+001
3.00000e-002,1.05836e-002,4.50000e-001,-6.71964e+001,4.50000e-001,3.79285e+001,4.50000e-001,-8.49164e+001
3.10000e-002,1.03902e-002,4.65000e-001,-6.70891e+001,4.65000e-001,3.75184e+001,4.65000e-001,-8.46363e+001
3.20000e-002,1.02036e-002,4.80000e-001,-6.70887e+001,4.80000e-001,3.71082e+001,4.80000e-001,-8.45541e+001
3.30000e-002,1.00223e-002,4.95000e-001,-6.72455e+001,4.95000e-001,3.65848e+001,4.95000e-001,-8.44322e+001
3.40000e-002,9.84704e-003,5.10000e-001,-6.77152e+001,5.10000e-001,3.56326e+001,5.10000e-001,-8.42970e+001
3.50000e-002,9.67785e-003,5.25000e-001,-6.80556e+001,5.25000e-001,3.48947e+001,5.25000e-001,-8.41240e+001
3.60000e-002,9.51168e-003,5.40000e-001,-6.82721e+001,5.40000e-001,3.40946e+001,5.40000e-001,-8.35927e+001
3.70000e-002,9.35155e-003,5.55000e-001,-6.83665e+001,5.55000e-001,3.36681e+001,5.55000e-001,-8.31555e+001
3.80000e-002,9.19445e-003,5.70000e-001,-6.85914e+001,5.70000e-001,3.30756e+001,5.70000e-001,-8.26523e+001
3.90000e-002,9.03801e-003,5.85000e-001,-6.88023e+001,5.85000e-001,3.26251e+001,5.85000e-001,-8.23153e+001
4.00000e-002,6.03149e-003,6.00000e-001,-6.90555e+001,6.00000e-001,3.21626e+001,6.00000e-001,-8.20634e+001
4.10000e-002,-2.65235e-003,6.15000e-001,-6.94916e+001,6.15000e-001,3.15323e+001,6.15000e-001,-8.18869e+001
4.20000e-002,-8.10947e-003,6.30000e-001,-6.99070e+001,6.30000e-001,3.11105e+001,6.30000e-001,-8.18788e+001
4.30000e-002,-1.09062e-002,6.45000e-001,-7.06321e+001,6.45000e-001,3.03947e+001,6.45000e-001,-8.19316e+001
4.40000e-002,-1.09857e-002,6.60000e-001,-7.12676e+001,6.60000e-001,2.97020e+001,6.60000e-001,-8.18600e+001
4.50000e-002,-6.19162e-003,6.75000e-001,-7.18451e+001,6.75000e-001,2.89825e+001,6.75000e-001,-8.17401e+001
4.60000e-002,7.04933e-003,6.90000e-001,-7.25624e+001,6.90000e-001,2.80045e+001,6.90000e-001,-8.12861e+001
4.70000e-002,9.40258e-003,7.05000e-001,-7.30277e+001,7.05000e-001,2.73833e+001,7.05000e-001,-8.07615e+001
4.80000e-002,9.14409e-003,7.20000e-001,-7.35049e+001,7.20000e-001,2.68528e+001,7.20000e-001,-8.01623e+001
4.90000e-002,9.02257e-003,7.35000e-001,-7.41357e+001,7.35000e-001,2.61794e+001,7.35000e-001,-7.93306e+001
5.00000e-002,8.87419e-003,7.50000e-001,-7.47445e+001,7.50000e-001,2.57358e+001,7.50000e-001,-7.84509e+001
5.10000e-002,8.72380e-003,7.65000e-001,-7.51215e+001,7.65000e-001,2.55015e+001,7.65000e-001,-7.79111e+001
5.20000e-002,8.58280e-003,7.80000e-001,-7.53590e+001,7.80000e-001,2.55302e+001,7.80000e-001,-7.75528e+001
5.30000e-002,8.44315e-003,7.95000e-001,-7.53045e+001,7.95000e-001,2.58861e+001,7.95000e-001,-7.72294e+001
5.40000e-002,7.76504e-003,8.10000e-001,-7.48512e+001,8.10000e-001,2.61513e+001,8.10000e-001,-7.68474e+001
5.50000e-002,1.13701e-003,8.25000e-001,-7.39725e+001,8.25000e-001,2.67466e+001,8.25000e-001,-7.64805e+001
5.60000e-002,-9.97360e-003,8.40000e-001,-7.31762e+001,8.40000e-001,2.73170e+001,8.40000e-001,-7.62993e+001
5.70000e-002,-1.09847e-002,8.55000e-001,-7.23254e+001,8.55000e-001,2.78890e+001,8.55000e-001,-7.61829e+001
5.80000e-002,-1.09871e-002,8.70000e-001,-7.12637e+001,8.70000e-001,2.85918e+001,8.70000e-001,-7.61685e+001
5.90000e-002,-1.09877e-002,8.85000e-001,-7.05379e+001,8.85000e-001,2.91095e+001,8.85000e-001,-7.62286e+001
6.00000e-002,-1.09881e-002,9.00000e-001,-6.97384e+001,9.00000e-001,2.98511e+001,9.00000e-001,-7.63669e+001
6.10000e-002,-1.09881e-002,9.15000e-001,-6.92795e+001,9.15000e-001,3.04383e+001,9.15000e-001,-7.65855e+001
6.20000e-002,-1.09881e-002,9.30000e-001,-6.89765e+001,9.30000e-001,3.09012e+001,9.30000e-001,-7.68202e+001
6.30000e-002,-1.09884e-002,9.45000e-001,-6.86773e+001,9.45000e-001,3.12779e+001,9.45000e-001,-7.71860e+001
6.40000e-002,-1.09884e-002,9.60000e-001,-6.85321e+001,9.60000e-001,3.14624e+001,9.60000e-001,-7.75407e+001
6.50000e-002,-1.09881e-002,9.75000e-001,-6.83998e+001,9.75000e-001,3.16378e+001,9.75000e-001,-7.80318e+001
6.60000e-002,-1.09888e-002,9.90000e-001,-6.83224e+001,9.90000e-001,3.17359e+001,9.90000e-001,-7.83685e+001
6.70000e-002,-1.09888e-002,1.00500e+000,-6.82038e+001,1.00500e+000,3.18258e+001,1.00500e+000,-7.88166e+001
6.80000e-002,-1.09072e-002,1.02000e+000,-6.81195e+001,1.02000e+000,3.18289e+001,1.02000e+000,-7.91125e+001
6.90000e-002,-1.07111e-002,1.03500e+000,-6.80511e+001,1.03500e+000,3.17529e+001,1.03500e+000,-7.93526e+001
7.00000e-002,-1.05198e-002,1.05000e+000,-6.80109e+001,1.05000e+000,3.15932e+001,1.05000e+000,-7.96617e+001
7.10000e-002,-1.03341e-002,1.06500e+000,-6.79911e+001,1.06500e+000,3.14590e+001,1.06500e+000,-7.99034e+001
7.20000e-002,-1.01539e-002,1.08000e+000,-6.79837e+001,1.08000e+000,3.12753e+001,1.08000e+000,-8.01964e+001
7.30000e-002,-9.95245e-003,1.09500e+000,-6.79793e+001,1.09500e+000,3.10320e+001,1.09500e+000,-8.03312e+001
7.40000e-002,-7.80902e-003,1.11000e+000,-6.79611e+001,1.11000e+000,3.07453e+001,1.11000e+000,-8.03063e+001
7.50000e-002,-4.42148e-003,1.12500e+000,-6.79339e+001,1.12500e+000,3.04651e+001,1.12500e+000,-8.01617e+001
7.60000e-002,-1.35454e-003,1.14000e+000,-6.78887e+001,1.14000e+000,3.03054e+001,1.14000e+000,-7.99981e+001
7.70000e-002,6.88786e-003,1.15500e+000,-6.79063e+001,1.15500e+000,3.01100e+001,1.15500e+000,-7.98840e+001
7.80000e-002,1.08703e-002,1.17000e+000,-6.79516e+001,1.17000e+000,3.00098e+001,1.17000e+000,-7.98738e+001
7.90000e-002,1.08750e-002,1.18500e+000,-6.79869e+001,1.18500e+000,2.99246e+001,1.18500e+000,-7.98450e+001
8.00000e-002,1.08746e-002,1.20000e+000,-6.79659e+001,1.20000e+000,2.99521e+001,1.20000e+000,-7.98069e+001
8.10000e-002,1.08750e-002,1.21500e+000,-6.79152e+001,1.21500e+000,2.99985e+001,1.21500e+000,-7.97360e+001
8.20000e-002,1.08750e-002,1.23000e+000,-6.78166e+001,1.23000e+000,3.00531e+001,1.23000e+000,-7.95708e+001
8.30000e-002,1.08071e-002,1.24500e+000,-6.77209e+001,1.24500e+000,3.00891e+001,1.24500e+000,-7.94251e+001
8.40000e-002,1.06051e-002,1.26000e+000,-6.75389e+001,1.26000e+000,3.01709e+001,1.26000e+000,-7.91708e+001
8.50000e-002,1.04110e-002,1.27500e+000,-6.74006e+001,1.27500e+000,3.02476e+001,1.27500e+000,-7.89990e+001
8.60000e-002,1.02230e-002,1.29000e+000,-6.72533e+001,1.29000e+000,3.03406e+001,1.29000e+000,-7.88372e+001
8.70000e-002,9.45428e-003,1.30500e+000,-6.70807e+001,1.30500e+000,3.04650e+001,1.30500e+000,-7.86275e+001
8.80000e-002,1.18334e-003,1.32000e+000,-6.69978e+001,1.32000e+000,3.05351e+001,1.32000e+000,-7.85245e+001
8.90000e-002,-8.73219e-003,1.33500e+000,-6.68993e+001,1.33500e+000,3.06345e+001,1.33500e+000,-7.84060e+001
9.00000e-002,-1.09837e-002,1.35000e+000,-6.68234e+001,1.35000e+000,3.07528e+001,1.35000e+000,-7.82759e+001
9.10000e-002,-1.09871e-002,1.36500e+000,-6.67130e+001,1.36500e+000,3.09104e+001,1.36500e+000,-7.81120e+001
9.20000e-002,-1.09877e-002,1.38000e+000,-6.66773e+001,1.38000e+000,3.09787e+001,1.38000e+000,-7.80330e+001
9.30000e-002,-1.09240e-002,1.39500e+000,-6.66571e+001,1.39500e+000,3.10263e+001,1.39500e+000,-7.79645e+001
9.40000e-002,-1.07246e-002,1.41000e+000,-6.66442e+001,1.41000e+000,3.10534e+001,1.41000e+000,-7.78941e+001
9.50000e-002,-1.05295e-002,1.42500e+000,-6.66366e+001,1.42500e+000,3.10740e+001,1.42500e+000,-7.78653e+001
9.60000e-002,-9.48247e-003,1.44000e+000,-6.66051e+001,1.44000e+000,3.12014e+001,1.44000e+000,-7.78095e+001
9.70000e-002,-4.55174e-003,1.45500e+000,-6.65388e+001,1.45500e+000,3.13565e+001,1.45500e+000,-7.77321e+001
9.80000e-002,-9.20150e-004,1.47000e+000,-6.64422e+001,1.47000e+000,3.15103e+001,1.47000e+000,-7.76445e+001
9.90000e-002,-8.72783e-003,1.48500e+000,-6.63019e+001,1.48500e+000,3.16925e+001,1.48500e+000,-7.75563e+001
1.00000e-001,-9.95178e-003,1.50000e+000,-6.62481e+001,1.50000e+000,3.18012e+001,1.50000e+000,-7.75654e+001
1.01000e-001,-6.46857e-003,1.51500e+000,-6.62876e+001,1.51500e+000,3.18821e+001,1.51500e+000,-7.77590e+001
1.02000e-001,4.28452e-003,1.53000e+000,-6.63588e+001,1.53000e+000,3.18955e+001,1.53000e+000,-7.79541e+001
1.03000e-001,7.36489e-003,1.54500e+000,-6.64151e+001,1.54500e+000,3.18769e+001,1.54500e+000,-7.81171e+001
1.04000e-001,1.08642e-002,1.56000e+000,-6.64911e+001,1.56000e+000,3.17885e+001,1.56000e+000,-7.83076e+001
1.05000e-001,1.08750e-002,1.57500e+000,-6.65716e+001,1.57500e+000,3.16930e+001,1.57500e+000,-7.84323e+001
1.06000e-001,1.08763e-002,1.59000e+000,-6.66853e+001,1.59000e+000,3.15619e+001,1.59000e+000,-7.85494e+001
1.07000e-001,1.08770e-002,1.60500e+000,-6.67656e+001,1.60500e+000,3.14541e+001,1.60500e+000,-7.86156e+001
1.08000e-001,1.08756e-002,1.62000e+000,-6.68496e+001,1.62000e+000,3.13652e+001,1.62000e+000,-7.87227e+001
1.09000e-001,1.03197e-002,1.63500e+000,-6.69108e+001,1.63500e+000,3.13130e+001,1.63500e+000,-7.87721e+001
1.10000e-001,7.81305e-003,1.65000e+000,-6.69867e+001,1.65000e+000,3.12842e+001,1.65000e+000,-7.88637e+001
1.11000e-001,4.80015e-003,1.66500e+000,-6.71030e+001,1.66500e+000,3.12630e+001,1.66500e+000,-7.90080e+001
1.12000e-001,9.63220e-003,1.68000e+000,-6.71842e+001,1.68000e+000,3.12568e+001,1.68000e+000,-7.91243e+001
1.13000e-001,1.01136e-002,1.69500e+000,-6.72480e+001,1.69500e+000,3.12611e+001,1.69500e+000,-7.92730e+001
1.14000e-001,9.91485e-003,1.71000e+000,-6.72694e+001,1.71000e+000,3.12621e+001,1.71000e+000,-7.93358e+001
1.15000e-001,9.71881e-003,1.72500e+000,-6.72754e+001,1.72500e+000,3.12801e+001,1.72500e+000,-7.93570e+001
1.16000e-001,9.56371e-003,1.74000e+000,-6.72896e+001,1.74000e+000,3.12833e+001,1.74000e+000,-7.94040e+001
1.17000e-001,9.39788e-003,1.75500e+000,-6.73310e+001,1.75500e+000,3.12506e+001,1.75500e+000,-7.94004e+001
1.18000e-001,9.23943e-003,1.77000e+000,-6.74143e+001,1.77000e+000,3.11730e+001,1.77000e+000,-7.94914e+001
1.19000e-001,9.08232e-003,1.78500e+000,-6.74788e+001,1.78500e+000,3.10961e+001,1.78500e+000,-7.96300e+001
1.20000e-001,8.93126e-003,1.80000e+000,-6.75654e+001,1.80000e+000,3.10012e+001,1.80000e+000,-7.98355e+001
1.21000e-001,6.55753e-003,1.81500e+000,-6.76336e+001,1.81500e+000,3.09467e+001,1.81500e+000,-7.99753e+001
1.22000e-001,-1.07249e-002,1.83000e+000,-6.77542e+001,1.83000e+000,3.09009e+001,1.83000e+000,-8.01681e+001
1.23000e-001,-1.09847e-002,1.84500e+000,-6.79864e+001,1.84500e+000,3.09185e+001,1.84500e+000,-8.05183e+001
1.24000e-001,-1.09871e-002,1.86000e+000,-6.81950e+001,1.86000e+000,3.09607e+001,1.86000e+000,-8.08327e+001
1.25000e-001,-1.09877e-002,1.87500e+000,-6.85286e+001,1.87500e+000,3.10532e+001,1.87500e+000,-8.11999e+001
1.26000e-001,-1.09877e-002,1.89000e+000,-6.88530e+001,1.89000e+000,3.11263e+001,1.89000e+000,-8.14423e+001
1.27000e-001,-1.09884e-002,1.90500e+000,-6.90231e+001,1.90500e+000,3.12610e+001,1.90500e+000,-8.14297e+001
1.28000e-001,-1.09884e-002,1.92000e+000,-6.90737e+001,1.92000e+000,3.13970e+001,1.92000e+000,-8.10011e+001
1.29000e-001,-7.89294e-003,1.93500e+000,-6.89904e+001,1.93500e+000,3.14506e+001,1.93500e+000,-8.04599e+001
1.30000e-001,9.68322e-003,1.95000e+000,-6.85694e+001,1.95000e+000,3.15402e+001,1.95000e+000,-7.92799e+001
1.31000e-001,1.01545e-002,1.96500e+000,-6.80718e+001,1.96500e+000,3.15327e+001,1.96500e+000,-7.82191e+001
1.32000e-001,9.96521e-003,1.98000e+000,-6.76132e+001,1.98000e+000,3.14162e+001,1.98000e+000,-7.72924e+001
1.33000e-001,2.37641e-003,1.99500e+000,-6.71437e+001,1.99500e+000,3.12043e+001,1.99500e+000,-7.64568e+001
1.34000e-001,-1.09582e-002,2.01000e+000,-6.69412e+001,2.01000e+000,3.10693e+001,2.01000e+000,-7.61970e+001
1.35000e-001,-1.09864e-002,2.02500e+000,-6.67976e+001,2.02500e+000,3.09140e+001,2.02500e+000,-7.59934e+001
1.36000e-001,-1.09874e-002,2.04000e+000,-6.67174e+001,2.04000e+000,3.08618e+001,2.04000e+000,-7.59083e+001
1.37000e-001,-1.09881e-002,2.05500e+000,-6.66512e+001,2.05500e+000,3.08215e+001,2.05500e+000,-7.58950e+001
1.38000e-001,-1.09884e-002,2.07000e+000,-6.66274e+001,2.07000e+000,3.07917e+001,2.07000e+000,-7.59186e+001
1.39000e-001,-1.08290e-002,2.08500e+000,-6.66553e+001,2.08500e+000,3.07257e+001,2.08500e+000,-7.59902e+001
1.40000e-001,-1.06343e-002,2.10000e+000,-6.68087e+001,2.10000e+000,3.06204e+001,2.10000e+000,-7.61875e+001
1.41000e-001,-1.04446e-002,2.11500e+000,-6.69346e+001,2.11500e+000,3.05366e+001,2.11500e+000,-7.63673e+001
1.42000e-001,-1.02600e-002,2.13000e+000,-6.70980e+001,2.13000e+000,3.04539e+001,2.13000e+000,-7.66077e+001
1.43000e-001,-1.00810e-002,2.14500e+000,-6.72226e+001,2.14500e+000,3.04337e+001,2.14500e+000,-7.68114e+001
1.44000e-001,-9.90646e-003,2.16000e+000,-6.73670e+001,2.16000e+000,3.04267e+001,2.16000e+000,-7.70283e+001
1.45000e-001,-9.73626e-003,2.17500e+000,-6.75265e+001,2.17500e+000,3.04792e+001,2.17500e+000,-7.73035e+001
1.46000e-001,-9.57143e-003,2.19000e+000,-6.75899e+001,2.19000e+000,3.05596e+001,2.19000e+000,-7.74618e+001
1.47000e-001,-9.41064e-003,2.20500e+000,-6.76698e+001,2.20500e+000,3.06391e+001,2.20500e+000,-7.76369e+001
1.48000e-001,-9.25454e-003,2.22000e+000,-6.77340e+001,2.22000e+000,3.06992e+001,2.22000e+000,-7.78257e+001
1.49000e-001,-8.28034e-003,2.23500e+000,-6.78049e+001,2.23500e+000,3.07400e+001,2.23500e+000,-7.80297e+001
1.50000e-001,-9.98032e-004,2.25000e+000,-6.78371e+001,2.25000e+000,3.07263e+001,2.25000e+000,-7.81096e+001
1.51000e-001,9.16558e-003,2.26500e+000,-6.78608e+001,2.26500e+000,3.06963e+001,2.26500e+000,-7.81268e+001
1.52000e-001,1.08743e-002,2.28000e+000,-6.78680e+001,2.28000e+000,3.06022e+001,2.28000e+000,-7.80853e+001
1.53000e-001,1.08763e-002,2.29500e+000,-6.79003e+001,2.29500e+000,3.05010e+001,2.29500e+000,-7.79966e+001
1.54000e-001,1.08776e-002,2.31000e+000,-6.79279e+001,2.31000e+000,3.02783e+001,2.31000e+000,-7.78541e+001
1.55000e-001,1.08783e-002,2.32500e+000,-6.79737e+001,2.32500e+000,3.00704e+001,2.32500e+000,-7.77023e+001
1.56000e-001,1.08786e-002,2.34000e+000,-6.80425e+001,2.34000e+000,2.98204e+001,2.34000e+000,-7.75694e+001
1.57000e-001,1.08770e-002,2.35500e+000,-6.81634e+001,2.35500e+000,2.94620e+001,2.35500e+000,-7.74582e+001
1.58000e-001,1.08776e-002,2.37000e+000,-6.82772e+001,2.37000e+000,2.91874e+001,2.37000e+000,-7.73995e+001
1.59000e-001,1.08770e-002,2.38500e+000,-6.84594e+001,2.38500e+000,2.88714e+001,2.38500e+000,-7.73251e+001
1.60000e-001,3.82864e-003,2.40000e+000,-6.85820e+001,2.40000e+000,2.86569e+001,2.40000e+000,-7.72617e+001
1.61000e-001,-1.08441e-002,2.41500e+000,-6.87152e+001,2.41500e+000,2.84560e+001,2.41500e+000,-7.71376e+001
1.62000e-001,-1.06990e-002,2.43000e+000,-6.88375e+001,2.43000e+000,2.81790e+001,2.43000e+000,-7.68321e+001
1.63000e-001,-1.04701e-002,2.44500e+000,-6.88929e+001,2.44500e+000,2.79308e+001,2.44500e+000,-7.66040e+001
1.64000e-001,-1.02553e-002,2.46000e+000,-6.89785e+001,2.46000e+000,2.75864e+001,2.46000e+000,-7.63329e+001
1.65000e-001,-1.00901e-002,2.47500e+000,-6.91022e+001,2.47500e+000,2.73114e+001,2.47500e+000,-7.62538e+001
1.66000e-001,-9.90915e-003,2.49000e+000,-6.93223e+001,2.49000e+000,2.69401e+001,2.49000e+000,-7.61367e+001
1.67000e-001,-9.73761e-003,2.50500e+000,-6.94785e+001,2.50500e+000,2.66420e+001,2.50500e+000,-7.59627e+001
1.68000e-001,-8.50156e-003,2.52000e+000,-6.95834e+001,2.52000e+000,2.63781e+001,2.52000e+000,-7.56840e+001
1.69000e-001,8.32834e-003,2.53500e+000,-6.96445e+001,2.53500e+000,2.60784e+001,2.53500e+000,-7.52377e+001
1.70000e-001,1.08743e-002,2.55000e+000,-6.96846e+001,2.55000e+000,2.58054e+001,2.55000e+000,-7.49182e+001
1.71000e-001,1.08756e-002,2.56500e+000,-6.98126e+001,2.56500e+000,2.53591e+001,2.56500e+000,-7.45400e+001
1.72000e-001,1.08760e-002,2.58000e+000,-6.99894e+001,2.58000e+000,2.49967e+001,2.58000e+000,-7.42663e+001
1.73000e-001,6.75593e-003,2.59500e+000,-7.01930e+001,2.59500e+000,2.46047e+001,2.59500e+000,-7.39944e+001
1.74000e-001,-8.00842e-003,2.61000e+000,-7.04776e+001,2.61000e+000,2.40565e+001,2.61000e+000,-7.36173e+001
1.75000e-001,-1.02247e-002,2.62500e+000,-7.06947e+001,2.62500e+000,2.36325e+001,2.62500e+000,-7.33657e+001
1.76000e-001,-9.91620e-003,2.64000e+000,-7.10600e+001,2.64000e+000,2.30409e+001,2.64000e+000,-7.29001e+001
1.77000e-001,-9.82455e-003,2.65500e+000,-7.13058e+001,2.65500e+000,2.25661e+001,2.65500e+000,-7.24534e+001
1.78000e-001,-9.64865e-003,2.67000e+000,-7.15716e+001,2.67000e+000,2.20904e+001,2.67000e+000,-7.20473e+001
1.79000e-001,-9.48214e-003,2.68500e+000,-7.19323e+001,2.68500e+000,2.15464e+001,2.68500e+000,-7.15213e+001
1.80000e-001,-9.32134e-003,2.70000e+000,-7.22302e+001,2.70000e+000,2.10899e+001,2.70000e+000,-7.12569e+001
1.81000e-001,-9.16423e-003,2.71500e+000,-7.26455e+001,2.71500e+000,2.06306e+001,2.71500e+000,-7.09332e+001
1.82000e-001,-9.01082e-003,2.73000e+000,-7.29797e+001,2.73000e+000,2.03984e+001,2.73000e+000,-7.06897e+001
1.83000e-001,-8.86244e-003,2.74500e+000,-7.34123e+001,2.74500e+000,2.01135e+001,2.74500e+000,-7.04747e+001
1.84000e-001,-5.35607e-003,2.76000e+000,-7.38526e+001,2.76000e+000,1.97661e+001,2.76000e+000,-7.03411e+001
1.85000e-001,1.06339e-002,2.77500e+000,-7.41689e+001,2.77500e+000,1.94747e+001,2.77500e+000,-7.01459e+001
1.86000e-001,1.08746e-002,2.79000e+000,-7.46116e+001,2.79000e+000,1.90657e+001,2.79000e+000,-6.99096e+001
1.87000e-001,1.08763e-002,2.80500e+000,-7.49002e+001,2.80500e+000,1.88244e+001,2.80500e+000,-6.97665e+001
1.88000e-001,1.08770e-002,2.82000e+000,-7.53367e+001,2.82000e+000,1.85891e+001,2.82000e+000,-6.96531e+001
1.89000e-001,1.08763e-002,2.83500e+000,-7.55973e+001,2.83500e+000,1.85853e+001,2.83500e+000,-6.95824e+001
1.90000e-001,1.08770e-002,2.85000e+000,-7.57767e+001,2.85000e+000,1.86180e+001,2.85000e+000,-6.94910e+001
1.91000e-001,1.08770e-002,2.86500e+000,-7.59271e+001,2.86500e+000,1.86764e+001,2.86500e+000,-6.94405e+001
1.92000e-001,1.08622e-002,2.88000e+000,-7.59993e+001,2.88000e+000,1.87518e+001,2.88000e+000,-6.94279e+001
1.93000e-001,5.40810e-003,2.89500e+000,-7.60706e+001,2.89500e+000,1.88991e+001,2.89500e+000,-6.95311e+001
1.94000e-001,-3.48455e-003,2.91000e+000,-7.61497e+001,2.91000e+000,1.90411e+001,2.91000e+000,-6.97011e+001
1.95000e-001,-1.03120e-002,2.92500e+000,-7.62107e+001,2.92500e+000,1.93883e+001,2.92500e+000,-6.99940e+001
1.96000e-001,-1.01210e-002,2.94000e+000,-7.62440e+001,2.94000e+000,1.97739e+001,2.94000e+000,-7.04136e+001
1.97000e-001,-9.93432e-003,2.95500e+000,-7.63215e+001,2.95500e+000,2.02149e+001,2.95500e+000,-7.10759e+001
1.98000e-001,-9.79535e-003,2.97000e+000,-7.65217e+001,2.97000e+000,2.10114e+001,2.97000e+000,-7.22455e+001
1.99000e-001,-9.61743e-003,2.98500e+000,-7.65691e+001,2.98500e+000,2.17876e+001,2.98500e+000,-7.28735e+001
2.00000e-001,-7.24068e-003,3.00000e+000,-7.64096e+001,3.00000e+000,2.27223e+001,3.00000e+000,-7.33638e+001
2.01000e-001,4.37113e-003,3.01500e+000,-7.61478e+001,3.01500e+000,2.34958e+001,3.01500e+000,-7.36866e+001
2.02000e-001,1.08642e-002,3.03000e+000,-7.58344e+001,3.03000e+000,2.43926e+001,3.03000e+000,-7.40794e+001
2.03000e-001,1.08756e-002,3.04500e+000,-7.54600e+001,3.04500e+000,2.57686e+001,3.04500e+000,-7.50917e+001
2.04000e-001,1.08770e-002,3.06000e+000,-7.52974e+001,3.06000e+000,2.70160e+001,3.06000e+000,-7.61737e+001
2.05000e-001,1.08770e-002,3.07500e+000,-7.53015e+001,3.07500e+000,2.89868e+001,3.07500e+000,-7.77859e+001
2.06000e-001,1.08770e-002,3.09000e+000,-7.56300e+001,3.09000e+000,3.05463e+001,3.09000e+000,-7.93171e+001
2.07000e-001,1.08763e-002,3.10500e+000,-7.64434e+001,3.10500e+000,3.26623e+001,3.10500e+000,-8.16258e+001
2.08000e-001,9.46569e-003,3.12000e+000,-7.74551e+001,3.12000e+000,3.42074e+001,3.12000e+000,-8.39344e+001
2.09000e-001,5.05663e-003,3.13500e+000,-7.87411e+001,3.13500e+000,3.58910e+001,3.13500e+000,-8.66576e+001
2.10000e-001,2.28913e-003,3.15000e+000,-8.07100e+001,3.15000e+000,3.82999e+001,3.15000e+000,-9.03935e+001
2.11000e-001,1.63485e-004,3.16500e+000,-8.23340e+001,3.16500e+000,4.01003e+001,3.16500e+000,-9.33927e+001
2.12000e-001,-1.85541e-003,3.18000e+000,-8.46548e+001,3.18000e+000,4.23257e+001,3.18000e+000,-9.74384e+001
2.13000e-001,-3.50637e-003,3.19500e+000,-8.64258e+001,3.19500e+000,4.40708e+001,3.19500e+000,-1.00276e+002
2.14000e-001,-4.87300e-003,3.21000e+000,-8.80770e+001,3.21000e+000,4.56843e+001,3.21000e+000,-1.03090e+002
2.15000e-001,-5.22783e-003,3.22500e+000,-9.00938e+001,3.22500e+000,4.75071e+001,3.22500e+000,-1.06240e+002
2.16000e-001,-4.76793e-003,3.24000e+000,-9.13786e+001,3.24000e+000,4.87051e+001,3.24000e+000,-1.08195e+002
2.17000e-001,-4.26236e-003,3.25500e+000,-9.31986e+001,3.25500e+000,5.03328e+001,3.25500e+000,-1.11056e+002
2.18000e-001,-2.77018e-003,3.27000e+000,-9.47229e+001,3.27000e+000,5.17245e+001,3.27000e+000,-1.13468e+002
2.19000e-001,-3.67321e-003,3.28500e+000,-9.68413e+001,3.28500e+000,5.37652e+001,3.28500e+000,-1.16802e+002
2.20000e-001,-4.08176e-003,3.30000e+000,-9.82660e+001,3.30000e+000,5.50792e+001,3.30000e+000,-1.18736e+002
2.21000e-001,-4.38456e-003,3.31500e+000,-9.96259e+001,3.31500e+000,5.61213e+001,3.31500e+000,-1.20634e+002
2.22000e-001,-4.42182e-003,3.33000e+000,-1.01556e+002,3.33000e+000,5.71834e+001,3.33000e+000,-1.23199e+002
2.23000e-001,-3.88772e-003,3.34500e+000,-1.03174e+002,3.34500e+000,5.78122e+001,3.34500e+000,-1.25257e+002
2.24000e-001,-2.37540e-003,3.36000e+000,-1.05453e+002,3.36000e+000,5.84081e+001,3.36000e+000,-1.28045e+002
2.25000e-001,-6.63676e-004,3.37500e+000,-1.07240e+002,3.37500e+000,5.86108e+001,3.37500e+000,-1.30174e+002
2.26000e-001,-2.26932e-004,3.39000e+000,-1.09065e+002,3.39000e+000,5.87556e+001,3.39000e+000,-1.32372e+002
2.27000e-001,1.14507e-003,3.40500e+000,-1.11588e+002,3.40500e+000,5.87902e+001,3.40500e+000,-1.35349e+002
2.28000e-001,2.57917e-003,3.42000e+000,-1.13381e+002,3.42000e+000,5.87525e+001,3.42000e+000,-1.37423e+002
2.29000e-001,2.71211e-003,3.43500e+000,-1.15568e+002,3.43500e+000,5.87494e+001,3.43500e+000,-1.39911e+002
2.30000e-001,3.70141e-003,3.45000e+000,-1.17167e+002,3.45000e+000,5.87157e+001,3.45000e+000,-1.41733e+002
2.31000e-001,4.29627e-003,3.46500e+000,-1.18699e+002,3.46500e+000,5.86599e+001,3.46500e+000,-1.43498e+002
2.32000e-001,4.96532e-003,3.48000e+000,-1.20524e+002,3.48000e+000,5.85360e+001,3.48000e+000,-1.45577e+002
2.33000e-001,5.28020e-003,3.49500e+000,-1.21712e+002,3.49500e+000,5.84425e+001,3.49500e+000,-1.46900e+002
2.34000e-001,5.46081e-003,3.51000e+000,-1.22831e+002,3.51000e+000,5.83079e+001,3.51000e+000,-1.48173e+002
2.35000e-001,5.68438e-003,3.52500e+000,-1.23415e+002,3.52500e+000,5.82304e+001,3.52500e+000,-1.48877e+002
2.36000e-001,5.65417e-003,3.54000e+000,-1.23990e+002,3.54000e+000,5.82481e+001,3.54000e+000,-1.49582e+002
2.37000e-001,5.15465e-003,3.55500e+000,-1.24318e+002,3.55500e+000,5.83439e+001,3.55500e+000,-1.49992e+002
2.38000e-001,4.93745e-003,3.57000e+000,-1.24528e+002,3.57000e+000,5.84480e+001,3.57000e+000,-1.50301e+002
2.39000e-001,5.20165e-003,3.58500e+000,-1.24665e+002,3.58500e+000,5.85147e+001,3.58500e+000,-1.50164e+002
2.40000e-001,4.95122e-003,3.60000e+000,-1.24609e+002,3.60000e+000,5.84418e+001,3.60000e+000,-1.50210e+002
2.41000e-001,4.59974e-003,3.61500e+000,-1.24355e+002,3.61500e+000,5.81814e+001,3.61500e+000,-1.49990e+002
2.42000e-001,4.02771e-003,3.63000e+000,-1.23881e+002,3.63000e+000,5.78970e+001,3.63000e+000,-1.49183e+002
2.43000e-001,3.43050e-003,3.64500e+000,-1.23124e+002,3.64500e+000,5.77385e+001,3.64500e+000,-1.48041e+002
2.44000e-001,2.75239e-003,3.66000e+000,-1.21403e+002,3.66000e+000,5.77940e+001,3.66000e+000,-1.45848e+002
2.45000e-001,1.99506e-003,3.67500e+000,-1.19458e+002,3.67500e+000,5.80259e+001,3.67500e+000,-1.43529e+002
2.46000e-001,1.17729e-003,3.69000e+000,-1.16200e+002,3.69000e+000,5.86371e+001,3.69000e+000,-1.39818e+002
2.47000e-001,5.23354e-004,3.70500e+000,-1.13079e+002,3.70500e+000,5.94436e+001,3.70500e+000,-1.36283e+002
2.48000e-001,-5.59274e-004,3.72000e+000,-1.07718e+002,3.72000e+000,6.06582e+001,3.72000e+000,-1.30471e+002
2.49000e-001,-1.52944e-003,3.73500e+000,-1.02765e+002,3.73500e+000,6.12816e+001,3.73500e+000,-1.25206e+002
2.50000e-001,-1.82687e-003,3.75000e+000,-9.72283e+001,3.75000e+000,6.15049e+001,3.75000e+000,-1.19398e+002
2.51000e-001,-1.98364e-003,3.76500e+000,-8.98358e+001,3.76500e+000,6.07723e+001,3.76500e+000,-1.11638e+002
2.52000e-001,-1.92389e-003,3.78000e+000,-8.53891e+001,3.78000e+000,5.98482e+001,3.78000e+000,-1.07066e+002
2.53000e-001,-1.85440e-003,3.79500e+000,-8.13336e+001,3.79500e+000,5.90256e+001,3.79500e+000,-1.03285e+002
2.54000e-001,-1.71978e-003,3.81000e+000,-7.92531e+001,3.81000e+000,5.87960e+001,3.81000e+000,-1.01596e+002
2.55000e-001,-1.46902e-003,3.82500e+000,-7.75501e+001,3.82500e+000,5.85643e+001,3.82500e+000,-1.00251e+002
2.56000e-001,-1.17528e-003,3.84000e+000,-7.55350e+001,3.84000e+000,5.78642e+001,3.84000e+000,-9.86175e+001
2.57000e-001,-9.66476e-004,3.85500e+000,-7.41255e+001,3.85500e+000,5.71240e+001,3.85500e+000,-9.74592e+001
2.58000e-001,-7.95605e-004,3.87000e+000,-7.23009e+001,3.87000e+000,5.60461e+001,3.87000e+000,-9.59744e+001
2.59000e-001,-5.88479e-004,3.88500e+000,-7.10750e+001,3.88500e+000,5.54844e+001,3.88500e+000,-9.51176e+001
2.60000e-001,-3.61883e-004,3.90000e+000,-6.97435e+001,3.90000e+000,5.50982e+001,3.90000e+000,-9.43204e+001
2.61000e-001,-1.25216e-004,3.91500e+000,-6.87517e+001,3.91500e+000,5.49848e+001,3.91500e+000,-9.36662e+001
2.62000e-001,6.07614e-005,3.93000e+000,-6.76526e+001,3.93000e+000,5.47372e+001,3.93000e+000,-9.28463e+001
2.63000e-001,2.10147e-004,3.94500e+000,-6.60790e+001,3.94500e+000,5.41153e+001,3.94500e+000,-9.15639e+001
2.64000e-001,3.16564e-004,3.96000e+000,-6.48335e+001,3.96000e+000,5.35109e+001,3.96000e+000,-9.05388e+001
2.65000e-001,4.20630e-004,3.97500e+000,-6.34231e+001,3.97500e+000,5.25487e+001,3.97500e+000,-8.95180e+001
2.66000e-001,4.40101e-004,3.99000e+000,-6.26221e+001,3.99000e+000,5.19821e+001,3.99000e+000,-8.89843e+001
2.67000e-001,4.81392e-004,4.00500e+000,-6.19893e+001,4.00500e+000,5.14977e+001,4.00500e+000,-8.85894e+001
2.68000e-001,5.24361e-004,4.02000e+000,-6.12807e+001,4.02000e+000,5.09134e+001,4.02000e+000,-8.81058e+001
2.69000e-001,5.72366e-004,4.03500e+000,-6.08131e+001,4.03500e+000,5.04170e+001,4.03500e+000,-8.77543e+001
2.70000e-001,5.95193e-004,4.05000e+000,-5.99932e+001,4.05000e+000,4.97108e+001,4.05000e+000,-8.69304e+001
2.71000e-001,5.91836e-004,4.06500e+000,-5.94342e+001,4.06500e+000,4.90681e+001,4.06500e+000,-8.63173e+001
2.72000e-001,5.89822e-004,4.08000e+000,-5.89763e+001,4.08000e+000,4.84376e+001,4.08000e+000,-8.58632e+001
2.73000e-001,5.29732e-004,4.09500e+000,-5.85138e+001,4.09500e+000,4.76664e+001,4.09500e+000,-8.53452e+001
2.74000e-001,4.54871e-004,4.11000e+000,-5.82026e+001,4.11000e+000,4.71829e+001,4.11000e+000,-8.50209e+001
2.75000e-001,3.70275e-004,4.12500e+000,-5.79319e+001,4.12500e+000,4.65913e+001,4.12500e+000,-8.46211e+001
2.76000e-001,3.04479e-004,4.14000e+000,-5.77360e+001,4.14000e+000,4.61725e+001,4.14000e+000,-8.42446e+001
2.77000e-001,2.15183e-004,4.15500e+000,-5.71843e+001,4.15500e+000,4.55330e+001,4.15500e+000,-8.34650e+001
2.78000e-001,1.34615e-004,4.17000e+000,-5.65024e+001,4.17000e+000,4.49317e+001,4.17000e+000,-8.26336e+001
2.79000e-001,6.00900e-005,4.18500e+000,-5.58484e+001,4.18500e+000,4.41977e+001,4.18500e+000,-8.18609e+001
2.80000e-001,-3.05486e-005,4.20000e+000,-5.53149e+001,4.20000e+000,4.31161e+001,4.20000e+000,-8.12402e+001
2.81000e-001,-1.17159e-004,4.21500e+000,-5.50923e+001,4.21500e+000,4.22836e+001,4.21500e+000,-8.09657e+001
2.82000e-001,-1.78927e-004,4.23000e+000,-5.48995e+001,4.23000e+000,4.10749e+001,4.23000e+000,-8.06180e+001
2.83000e-001,-2.03769e-004,4.24500e+000,-5.45524e+001,4.24500e+000,4.00325e+001,4.24500e+000,-8.00341e+001
2.84000e-001,-2.74266e-004,4.26000e+000,-5.42088e+001,4.26000e+000,3.87288e+001,4.26000e+000,-7.93585e+001
2.85000e-001,-3.12535e-004,4.27500e+000,-5.37931e+001,4.27500e+000,3.66716e+001,4.27500e+000,-7.85224e+001
2.86000e-001,-3.52148e-004,4.29000e+000,-5.35118e+001,4.29000e+000,3.52048e+001,4.29000e+000,-7.80795e+001
2.87000e-001,-3.22606e-004,4.30500e+000,-5.32706e+001,4.30500e+000,3.36507e+001,4.30500e+000,-7.76757e+001
2.88000e-001,-3.27977e-004,4.32000e+000,-5.31829e+001,4.32000e+000,3.26211e+001,4.32000e+000,-7.73511e+001
2.89000e-001,-3.60204e-004,4.33500e+000,-5.31144e+001,4.33500e+000,3.10128e+001,4.33500e+000,-7.68122e+001
2.90000e-001,-4.03845e-004,4.35000e+000,-5.30948e+001,4.35000e+000,2.95978e+001,4.35000e+000,-7.63895e+001
2.91000e-001,-4.53193e-004,4.36500e+000,-5.31589e+001,4.36500e+000,2.81063e+001,4.36500e+000,-7.59597e+001
2.92000e-001,-4.60243e-004,4.38000e+000,-5.34606e+001,4.38000e+000,2.63518e+001,4.38000e+000,-7.53382e+001
2.93000e-001,-5.13619e-004,4.39500e+000,-5.38711e+001,4.39500e+000,2.51744e+001,4.39500e+000,-7.50043e+001
2.94000e-001,-4.89113e-004,4.41000e+000,-5.46108e+001,4.41000e+000,2.39832e+001,4.41000e+000,-7.49700e+001
2.95000e-001,-5.39132e-004,4.42500e+000,-5.53868e+001,4.42500e+000,2.32454e+001,4.42500e+000,-7.52095e+001
2.96000e-001,-5.08583e-004,4.44000e+000,-5.63822e+001,4.44000e+000,2.26338e+001,4.44000e+000,-7.55800e+001
2.97000e-001,-4.65614e-004,4.45500e+000,-5.79201e+001,4.45500e+000,2.19333e+001,4.45500e+000,-7.60452e+001
2.98000e-001,-4.65614e-004,4.47000e+000,-5.92591e+001,4.47000e+000,2.14202e+001,4.47000e+000,-7.63072e+001
2.99000e-001,-3.68261e-004,4.48500e+000,-6.08219e+001,4.48500e+000,2.08678e+001,4.48500e+000,-7.64638e+001
3.00000e-001,-3.02464e-004,4.50000e+000,-6.19931e+001,4.50000e+000,2.06527e+001,4.50000e+000,-7.64034e+001
3.01000e-001,-3.06157e-004,4.51500e+000,-6.32294e+001,4.51500e+000,2.05291e+001,4.51500e+000,-7.62765e+001
3.02000e-001,-3.51476e-004,4.53000e+000,-6.48760e+001,4.53000e+000,2.03922e+001,4.53000e+000,-7.60787e+001
3.03000e-001,-3.27306e-004,4.54500e+000,-6.61147e+001,4.54500e+000,2.03583e+001,4.54500e+000,-7.59274e+001
3.04000e-001,-3.21599e-004,4.56000e+000,-6.75103e+001,4.56000e+000,2.02309e+001,4.56000e+000,-7.58027e+001
3.05000e-001,-3.17906e-004,4.57500e+000,-6.84152e+001,4.57500e+000,2.00920e+001,4.57500e+000,-7.55690e+001
3.06000e-001,-3.60876e-004,4.59000e+000,-6.94601e+001,4.59000e+000,1.98406e+001,4.59000e+000,-7.46911e+001
3.07000e-001,-4.06195e-004,4.60500e+000,-7.01612e+001,4.60500e+000,1.94812e+001,4.60500e+000,-7.37691e+001
3.08000e-001,-3.79004e-004,4.62000e+000,-7.07308e+001,4.62000e+000,1.90392e+001,4.62000e+000,-7.28575e+001
3.09000e-001,-3.73632e-004,4.63500e+000,-7.14922e+001,4.63500e+000,1.85268e+001,4.63500e+000,-7.18256e+001
3.10000e-001,-3.60540e-004,4.65000e+000,-7.21001e+001,4.65000e+000,1.81362e+001,4.65000e+000,-7.12003e+001
3.11000e-001,-4.11231e-004,4.66500e+000,-7.29797e+001,4.66500e+000,1.75848e+001,4.66500e+000,-7.07981e+001
3.12000e-001,-4.31037e-004,4.68000e+000,-7.37769e+001,4.68000e+000,1.71141e+001,4.68000e+000,-7.06717e+001
3.13000e-001,-3.29320e-004,4.69500e+000,-7.46227e+001,4.69500e+000,1.66472e+001,4.69500e+000,-7.05427e+001
3.14000e-001,-4.15259e-004,4.71000e+000,-7.55061e+001,4.71000e+000,1.62857e+001,4.71000e+000,-6.99965e+001
3.15000e-001,-6.09964e-004,4.72500e+000,-7.60191e+001,4.72500e+000,1.60904e+001,4.72500e+000,-6.93453e+001
3.16000e-001,-6.29770e-004,4.74000e+000,-7.65669e+001,4.74000e+000,1.58224e+001,4.74000e+000,-6.83149e+001
3.17000e-001,-6.11643e-004,4.75500e+000,-7.70848e+001,4.75500e+000,1.55621e+001,4.75500e+000,-6.77003e+001
3.18000e-001,-6.15000e-004,4.77000e+000,-7.79486e+001,4.77000e+000,1.54091e+001,4.77000e+000,-6.74121e+001
3.19000e-001,-6.67369e-004,4.78500e+000,-7.85939e+001,4.78500e+000,1.54463e+001,4.78500e+000,-6.77077e+001
3.20000e-001,-6.78111e-004,4.80000e+000,-7.91999e+001,4.80000e+000,1.56088e+001,4.80000e+000,-6.81342e+001
3.21000e-001,-6.55619e-004,4.81500e+000,-7.97928e+001,4.81500e+000,1.54442e+001,4.81500e+000,-6.82690e+001
3.22000e-001,-6.22385e-004,4.83000e+000,-7.99798e+001,4.83000e+000,1.52055e+001,4.83000e+000,-6.80514e+001
3.23000e-001,-5.71023e-004,4.84500e+000,-7.98645e+001,4.84500e+000,1.50368e+001,4.84500e+000,-6.77326e+001
3.24000e-001,-5.99222e-004,4.86000e+000,-7.97645e+001,4.86000e+000,1.50392e+001,4.86000e+000,-6.76766e+001
3.25000e-001,-6.05936e-004,4.87500e+000,-7.96777e+001,4.87500e+000,1.50774e+001,4.87500e+000,-6.77656e+001
3.26000e-001,-5.58938e-004,4.89000e+000,-7.97091e+001,4.89000e+000,1.50416e+001,4.89000e+000,-6.79901e+001
3.27000e-001,-5.32418e-004,4.90500e+000,-7.98451e+001,4.90500e+000,1.48072e+001,4.90500e+000,-6.80570e+001
3.28000e-001,-5.52560e-004,4.92000e+000,-7.99934e+001,4.92000e+000,1.44872e+001,4.92000e+000,-6.79960e+001
3.29000e-001,-4.99184e-004,4.93500e+000,-8.01321e+001,4.93500e+000,1.42355e+001,4.93500e+000,-6.79181e+001
3.30000e-001,-4.38422e-004,4.95000e+000,-8.03050e+001,4.95000e+000,1.40898e+001,4.95000e+000,-6.77843e+001
3.31000e-001,-3.60204e-004,4.96500e+000,-8.05526e+001,4.96500e+000,1.39983e+001,4.96500e+000,-6.75388e+001
3.32000e-001,-3.20256e-004,4.98000e+000,-8.07459e+001,4.98000e+000,1.39089e+001,4.98000e+000,-6.72985e+001
3.33000e-001,-3.33349e-004,4.99500e+000,-8.10355e+001,4.99500e+000,1.37470e+001,4.99500e+000,-6.69785e+001
3.34000e-001,-3.26635e-004,5.01000e+000,-8.12296e+001,5.01000e+000,1.36499e+001,5.01000e+000,-6.67125e+001
3.35000e-001,-3.04143e-004,5.02500e+000,-8.14659e+001,5.02500e+000,1.35127e+001,5.02500e+000,-6.63973e+001
3.36000e-001,-3.57855e-004,5.04000e+000,-8.15991e+001,5.04000e+000,1.33926e+001,5.04000e+000,-6.61614e+001
3.37000e-001,-3.90082e-004,5.05500e+000,-8.17419e+001,5.05500e+000,1.32788e+001,5.05500e+000,-6.58930e+001
3.38000e-001,-3.62219e-004,5.07000e+000,-8.18461e+001,5.07000e+000,1.32392e+001,5.07000e+000,-6.54566e+001
3.39000e-001,-3.19249e-004,5.08500e+000,-8.18455e+001,5.08500e+000,1.32963e+001,5.08500e+000,-6.50555e+001
3.40000e-001,-2.97765e-004,5.10000e+000,-8.18266e+001,5.10000e+000,1.34185e+001,5.10000e+000,-6.44791e+001
3.41000e-001,-3.47784e-004,5.11500e+000,-8.17566e+001,5.11500e+000,1.35103e+001,5.11500e+000,-6.40633e+001
3.42000e-001,-3.03807e-004,5.13000e+000,-8.16886e+001,5.13000e+000,1.36240e+001,5.13000e+000,-6.35944e+001
3.43000e-001,-1.80941e-004,5.14500e+000,-8.16024e+001,5.14500e+000,1.37034e+001,5.14500e+000,-6.29184e+001
3.44000e-001,-1.68185e-004,5.16000e+000,-8.15392e+001,5.16000e+000,1.37407e+001,5.16000e+000,-6.21442e+001
3.45000e-001,-1.81613e-004,5.17500e+000,-8.15536e+001,5.17500e+000,1.37968e+001,5.17500e+000,-6.08963e+001
3.46000e-001,-1.52071e-004,5.19000e+000,-8.15522e+001,5.19000e+000,1.39653e+001,5.19000e+000,-5.98689e+001
3.47000e-001,-2.05783e-004,5.20500e+000,-8.15815e+001,5.20500e+000,1.41125e+001,5.20500e+000,-5.86590e+001
3.48000e-001,-2.13504e-004,5.22000e+000,-8.15758e+001,5.22000e+000,1.42124e+001,5.22000e+000,-5.79232e+001
3.49000e-001,-1.75235e-004,5.23500e+000,-8.16065e+001,5.23500e+000,1.42441e+001,5.23500e+000,-5.73093e+001
3.50000e-001,-2.16526e-004,5.25000e+000,-8.16203e+001,5.25000e+000,1.41681e+001,5.25000e+000,-5.66059e+001
3.51000e-001,-2.86686e-004,5.26500e+000,-8.16177e+001,5.26500e+000,1.40578e+001,5.26500e+000,-5.62108e+001
3.52000e-001,-3.20256e-004,5.28000e+000,-8.16104e+001,5.28000e+000,1.39176e+001,5.28000e+000,-5.58415e+001
3.53000e-001,-2.83665e-004,5.29500e+000,-8.16128e+001,5.29500e+000,1.37964e+001,5.29500e+000,-5.56983e+001
3.54000e-001,-3.52483e-004,5.31000e+000,-8.15737e+001,5.31000e+000,1.36303e+001,5.31000e+000,-5.56871e+001
3.55000e-001,-3.85046e-004,5.32500e+000,-8.14724e+001,5.32500e+000,1.34741e+001,5.32500e+000,-5.57457e+001
3.56000e-001,-4.17945e-004,5.34000e+000,-8.13944e+001,5.34000e+000,1.33698e+001,5.34000e+000,-5.58354e+001
3.57000e-001,-4.23987e-004,5.35500e+000,-8.13350e+001,5.35500e+000,1.31725e+001,5.35500e+000,-5.59363e+001
3.58000e-001,-3.85046e-004,5.37000e+000,-8.13132e+001,5.37000e+000,1.30115e+001,5.37000e+000,-5.60002e+001
3.59000e-001,-3.31334e-004,5.38500e+000,-8.12833e+001,5.38500e+000,1.28402e+001,5.38500e+000,-5.60892e+001
3.60000e-001,-3.03136e-004,5.40000e+000,-8.12966e+001,5.40000e+000,1.26519e+001,5.40000e+000,-5.64347e+001
3.61000e-001,-2.74937e-004,5.41500e+000,-8.13202e+001,5.41500e+000,1.25569e+001,5.41500e+000,-5.66982e+001
3.62000e-001,-2.00412e-004,5.43000e+000,-8.12779e+001,5.43000e+000,1.24768e+001,5.43000e+000,-5.69077e+001
3.63000e-001,-1.98062e-004,5.44500e+000,-8.12307e+001,5.44500e+000,1.24436e+001,5.44500e+000,-5.69911e+001
3.64000e-001,-1.92355e-004,5.46000e+000,-8.11874e+001,5.46000e+000,1.23749e+001,5.46000e+000,-5.70082e+001
3.65000e-001,-2.10483e-004,5.47500e+000,-8.11970e+001,5.47500e+000,1.23412e+001,5.47500e+000,-5.69964e+001
3.66000e-001,-1.84298e-004,5.49000e+000,-8.12293e+001,5.49000e+000,1.22859e+001,5.49000e+000,-5.69894e+001
3.67000e-001,-1.31929e-004,5.50500e+000,-8.13373e+001,5.50500e+000,1.21527e+001,5.50500e+000,-5.70041e+001
3.68000e-001,-9.43313e-005,5.52000e+000,-8.13941e+001,5.52000e+000,1.21307e+001,5.52000e+000,-5.70390e+001
3.69000e-001,-6.07614e-005,5.53500e+000,-8.14405e+001,5.53500e+000,1.21550e+001,5.53500e+000,-5.70618e+001
3.70000e-001,-1.71206e-005,5.55000e+000,-8.14657e+001,5.55000e+000,1.22050e+001,5.55000e+000,-5.71501e+001
3.71000e-001,1.67849e-006,5.56500e+000,-8.14391e+001,5.56500e+000,1.22729e+001,5.56500e+000,-5.73091e+001
3.72000e-001,-2.71916e-005,5.58000e+000,-8.13530e+001,5.58000e+000,1.23767e+001,5.58000e+000,-5.75521e+001
3.73000e-001,-4.36408e-006,5.59500e+000,-8.12765e+001,5.59500e+000,1.24570e+001,5.59500e+000,-5.77727e+001
3.74000e-001,2.45060e-005,5.61000e+000,-8.11929e+001,5.61000e+000,1.25174e+001,5.61000e+000,-5.80816e+001
3.75000e-001,6.64683e-005,5.62500e+000,-8.11539e+001,5.62500e+000,1.25204e+001,5.62500e+000,-5.82834e+001
3.76000e-001,7.18395e-005,5.64000e+000,-8.11049e+001,5.64000e+000,1.24719e+001,5.64000e+000,-5.84952e+001
3.77000e-001,9.03029e-005,5.65500e+000,-8.10205e+001,5.65500e+000,1.24205e+001,5.65500e+000,-5.87086e+001
3.78000e-001,5.87472e-005,5.67000e+000,-8.08964e+001,5.67000e+000,1.23657e+001,5.67000e+000,-5.89339e+001
3.79000e-001,1.14473e-004,5.68500e+000,-8.07374e+001,5.68500e+000,1.22823e+001,5.68500e+000,-5.92181e+001
3.80000e-001,1.33272e-004,5.70000e+000,-8.06635e+001,5.70000e+000,1.21765e+001,5.70000e+000,-5.94203e+001
3.81000e-001,1.31258e-004,5.71500e+000,-8.06250e+001,5.71500e+000,1.20445e+001,5.71500e+000,-5.96319e+001
3.82000e-001,1.52071e-004,5.73000e+000,-8.06609e+001,5.73000e+000,1.19307e+001,5.73000e+000,-5.97423e+001
3.83000e-001,1.41329e-004,5.74500e+000,-8.06866e+001,5.74500e+000,1.18433e+001,5.74500e+000,-5.97872e+001
3.84000e-001,1.33272e-004,5.76000e+000,-8.06963e+001,5.76000e+000,1.18049e+001,5.76000e+000,-5.97633e+001
3.85000e-001,9.09743e-005,5.77500e+000,-8.06637e+001,5.77500e+000,1.18028e+001,5.77500e+000,-5.97383e+001
3.86000e-001,8.15747e-005,5.79000e+000,-8.05578e+001,5.79000e+000,1.18143e+001,5.79000e+000,-5.97554e+001
3.87000e-001,5.67330e-005,5.80500e+000,-8.04618e+001,5.80500e+000,1.18202e+001,5.80500e+000,-5.97277e+001
3.88000e-001,2.98772e-005,5.82000e+000,-8.03380e+001,5.82000e+000,1.17882e+001,5.82000e+000,-5.96653e+001
3.89000e-001,3.35698e-006,5.83500e+000,-8.02669e+001,5.83500e+000,1.16964e+001,5.83500e+000,-5.96227e+001
3.90000e-001,-7.04967e-006,5.85000e+000,-8.02180e+001,5.85000e+000,1.15579e+001,5.85000e+000,-5.95700e+001
3.91000e-001,-7.04967e-006,5.86500e+000,-8.01205e+001,5.86500e+000,1.14229e+001,5.86500e+000,-5.95248e+001
3.92000e-001,1.51064e-005,5.88000e+000,-7.99739e+001,5.88000e+000,1.14432e+001,5.88000e+000,-5.95793e+001
3.93000e-001,1.04067e-005,5.89500e+000,-7.98235e+001,5.89500e+000,1.15351e+001,5.89500e+000,-5.96679e+001
3.94000e-001,-3.18914e-005,5.91000e+000,-7.97548e+001,5.91000e+000,1.15697e+001,5.91000e+000,-5.96694e+001
3.95000e-001,-4.19623e-005,5.92500e+000,-7.97031e+001,5.92500e+000,1.15438e+001,5.92500e+000,-5.95940e+001
3.96000e-001,-6.47898e-005,5.94000e+000,-7.96909e+001,5.94000e+000,1.14255e+001,5.94000e+000,-5.93821e+001
3.97000e-001,-4.93477e-005,5.95500e+000,-7.97202e+001,5.95500e+000,1.12968e+001,5.95500e+000,-5.92113e+001
3.98000e-001,-9.06386e-005,5.97000e+000,-7.97798e+001,5.97000e+000,1.11853e+001,5.97000e+000,-5.89751e+001
3.99000e-001,-1.19173e-004,5.98500e+000,-7.98405e+001,5.98500e+000,1.11823e+001,5.98500e+000,-5.88373e+001
4.00000e-001,-1.36629e-004,6.00000e+000,-7.99580e+001,6.00000e+000,1.12256e+001,6.00000e+000,-5.87371e+001
4.01000e-001,-1.37301e-004,6.01500e+000,-8.01938e+001,6.01500e+000,1.12538e+001,6.01500e+000,-5.86045e+001
4.02000e-001,-1.51736e-004,6.03000e+000,-8.03973e+001,6.03000e+000,1.12438e+001,6.03000e+000,-5.84639e+001
4.03000e-001,-1.81613e-004,6.04500e+000,-8.06400e+001,6.04500e+000,1.12079e+001,6.04500e+000,-5.82368e+001
4.04000e-001,-1.85641e-004,6.06000e+000,-8.07948e+001,6.06000e+000,1.12061e+001,6.06000e+000,-5.79880e+001
4.05000e-001,-2.01755e-004,6.07500e+000,-8.10331e+001,6.07500e+000,1.12158e+001,6.07500e+000,-5.76509e+001
4.06000e-001,-2.07126e-004,6.09000e+000,-8.12483e+001,6.09000e+000,1.12605e+001,6.09000e+000,-5.73405e+001
4.07000e-001,-2.13169e-004,6.10500e+000,-8.15250e+001,6.10500e+000,1.12559e+001,6.10500e+000,-5.70069e+001
4.08000e-001,-1.99741e-004,6.12000e+000,-8.18863e+001,6.12000e+000,1.12110e+001,6.12000e+000,-5.65038e+001
4.09000e-001,-2.00412e-004,6.13500e+000,-8.21046e+001,6.13500e+000,1.11840e+001,6.13500e+000,-5.60176e+001
4.10000e-001,-1.87320e-004,6.15000e+000,-8.22757e+001,6.15000e+000,1.12060e+001,6.15000e+000,-5.51402e+001
4.11000e-001,-1.72885e-004,6.16500e+000,-8.22374e+001,6.16500e+000,1.13462e+001,6.16500e+000,-5.44500e+001
4.12000e-001,-1.63485e-004,6.18000e+000,-8.20899e+001,6.18000e+000,1.15406e+001,6.18000e+000,-5.38334e+001
4.13000e-001,-1.63485e-004,6.19500e+000,-8.19168e+001,6.19500e+000,1.17638e+001,6.19500e+000,-5.32587e+001
4.14000e-001,-1.37972e-004,6.21000e+000,-8.18459e+001,6.21000e+000,1.18577e+001,6.21000e+000,-5.29269e+001
4.15000e-001,-1.38643e-004,6.22500e+000,-8.18149e+001,6.22500e+000,1.18872e+001,6.22500e+000,-5.26822e+001
4.16000e-001,-1.44015e-004,6.24000e+000,-8.17869e+001,6.24000e+000,1.18465e+001,6.24000e+000,-5.25896e+001
4.17000e-001,-1.18502e-004,6.25500e+000,-8.17179e+001,6.25500e+000,1.17229e+001,6.25500e+000,-5.25063e+001
4.18000e-001,-1.00038e-004,6.27000e+000,-8.16370e+001,6.27000e+000,1.15711e+001,6.27000e+000,-5.25106e+001
4.19000e-001,-7.85534e-005,6.28500e+000,-8.15166e+001,6.28500e+000,1.13925e+001,6.28500e+000,-5.26222e+001
4.20000e-001,-6.74754e-005,6.30000e+000,-8.12797e+001,6.30000e+000,1.12027e+001,6.30000e+000,-5.32670e+001
4.21000e-001,-4.59907e-005,6.31500e+000,-8.12422e+001,6.31500e+000,1.10184e+001,6.31500e+000,-5.40562e+001
4.22000e-001,-4.73335e-005,6.33000e+000,-8.12015e+001,6.33000e+000,1.07585e+001,6.33000e+000,-5.55432e+001
4.23000e-001,-3.32342e-005,6.34500e+000,-8.10253e+001,6.34500e+000,1.05503e+001,6.34500e+000,-5.66753e+001
4.24000e-001,-4.66621e-005,6.36000e+000,-8.08206e+001,6.36000e+000,1.01500e+001,6.36000e+000,-5.75978e+001
4.25000e-001,-4.66621e-005,6.37500e+000,-8.05058e+001,6.37500e+000,9.42450e+000,6.37500e+000,-5.86562e+001
4.26000e-001,-3.82696e-005,6.39000e+000,-8.02481e+001,6.39000e+000,8.91915e+000,6.39000e+000,-5.94198e+001
4.27000e-001,-4.43122e-005,6.40500e+000,-7.98105e+001,6.40500e+000,8.18616e+000,6.40500e+000,-6.04005e+001
4.28000e-001,-4.59907e-005,6.42000e+000,-7.94470e+001,6.42000e+000,7.54675e+000,6.42000e+000,-6.11938e+001
4.29000e-001,-6.37827e-005,6.43500e+000,-7.90756e+001,6.43500e+000,6.89180e+000,6.43500e+000,-6.20293e+001
4.30000e-001,-4.93477e-005,6.45000e+000,-7.85650e+001,6.45000e+000,6.37114e+000,6.45000e+000,-6.30854e+001
4.31000e-001,-4.19623e-005,6.46500e+000,-7.82500e+001,6.46500e+000,6.27789e+000,6.46500e+000,-6.37854e+001
4.32000e-001,-1.30922e-005,6.48000e+000,-7.78741e+001,6.48000e+000,6.63465e+000,6.48000e+000,-6.45627e+001
4.33000e-001,-3.02129e-006,6.49500e+000,-7.75915e+001,6.49500e+000,7.17456e+000,6.49500e+000,-6.51358e+001
4.34000e-001,1.00710e-005,6.51000e+000,-7.71490e+001,6.51000e+000,7.81056e+000,6.51000e+000,-6.59045e+001
4.35000e-001,2.31632e-005,6.52500e+000,-7.69311e+001,6.52500e+000,7.91817e+000,6.52500e+000,-6.66316e+001
4.36000e-001,3.99481e-005,6.54000e+000,-7.67669e+001,6.54000e+000,7.83752e+000,6.54000e+000,-6.74580e+001
4.37000e-001,4.26337e-005,6.55500e+000,-7.65552e+001,6.55500e+000,7.66736e+000,6.55500e+000,-6.86818e+001
4.38000e-001,3.02129e-005,6.57000e+000,-7.64109e+001,6.57000e+000,7.68404e+000,6.57000e+000,-6.96110e+001
4.39000e-001,4.73335e-005,6.58500e+000,-7.62426e+001,6.58500e+000,8.06069e+000,6.58500e+000,-7.07387e+001
4.40000e-001,3.18914e-005,6.60000e+000,-7.59996e+001,6.60000e+000,8.61431e+000,6.60000e+000,-7.15315e+001
4.41000e-001,4.12909e-005,6.61500e+000,-7.56300e+001,6.61500e+000,9.26646e+000,6.61500e+000,-7.23330e+001
4.42000e-001,-1.00710e-005,6.63000e+000,-7.51365e+001,6.63000e+000,1.00628e+001,6.63000e+000,-7.34858e+001
4.43000e-001,-3.12200e-005,6.64500e+000,-7.47931e+001,6.64500e+000,1.05586e+001,6.64500e+000,-7.43456e+001
4.44000e-001,-4.12909e-005,6.66000e+000,-7.44586e+001,6.66000e+000,1.09801e+001,6.66000e+000,-7.54793e+001
4.45000e-001,-4.53193e-005,6.67500e+000,-7.42243e+001,6.67500e+000,1.12204e+001,6.67500e+000,-7.62403e+001
4.46000e-001,-6.81468e-005,6.69000e+000,-7.39448e+001,6.69000e+000,1.14752e+001,6.69000e+000,-7.71871e+001
4.47000e-001,-8.49317e-005,6.70500e+000,-7.37431e+001,6.70500e+000,1.16612e+001,6.70500e+000,-7.78335e+001
4.48000e-001,-7.01610e-005,6.72000e+000,-7.35080e+001,6.72000e+000,1.18611e+001,6.72000e+000,-7.83492e+001
4.49000e-001,-7.04967e-005,6.73500e+000,-7.31259e+001,6.73500e+000,1.21220e+001,6.73500e+000,-7.87765e+001
4.50000e-001,-7.38537e-005,6.75000e+000,-7.29096e+001,6.75000e+000,1.22725e+001,6.75000e+000,-7.90559e+001
4.51000e-001,-1.08431e-004,6.76500e+000,-7.26277e+001,6.76500e+000,1.25820e+001,6.76500e+000,-7.94221e+001
4.52000e-001,-1.14809e-004,6.78000e+000,-7.24476e+001,6.78000e+000,1.28454e+001,6.78000e+000,-7.97030e+001
4.53000e-001,-1.23873e-004,6.79500e+000,-7.22858e+001,6.79500e+000,1.31136e+001,6.79500e+000,-8.00067e+001
4.54000e-001,-1.29244e-004,6.81000e+000,-7.20829e+001,6.81000e+000,1.34605e+001,6.81000e+000,-8.03265e+001
4.55000e-001,-1.51064e-004,6.82500e+000,-7.19782e+001,6.82500e+000,1.36435e+001,6.82500e+000,-8.05194e+001
4.56000e-001,-1.70871e-004,6.84000e+000,-7.18664e+001,6.84000e+000,1.37847e+001,6.84000e+000,-8.07372e+001
4.57000e-001,-1.68856e-004,6.85500e+000,-7.17993e+001,6.85500e+000,1.39003e+001,6.85500e+000,-8.08198e+001
4.58000e-001,-1.49722e-004,6.87000e+000,-7.17583e+001,6.87000e+000,1.39416e+001,6.87000e+000,-8.08288e+001
4.59000e-001,-1.38643e-004,6.88500e+000,-7.17424e+001,6.88500e+000,1.38858e+001,6.88500e+000,-8.08061e+001
4.60000e-001,-1.60464e-004,6.90000e+000,-7.17328e+001,6.90000e+000,1.38427e+001,6.90000e+000,-8.08116e+001
4.61000e-001,-1.67849e-004,6.91500e+000,-7.17336e+001,6.91500e+000,1.38093e+001,6.91500e+000,-8.07477e+001
4.62000e-001,-1.87320e-004,6.93000e+000,-7.17464e+001,6.93000e+000,1.37831e+001,6.93000e+000,-8.06882e+001
4.63000e-001,-1.96384e-004,6.94500e+000,-7.17501e+001,6.94500e+000,1.37472e+001,6.94500e+000,-8.05616e+001
4.64000e-001,-2.32639e-004,6.96000e+000,-7.17404e+001,6.96000e+000,1.37492e+001,6.96000e+000,-8.04175e+001
4.65000e-001,-2.34989e-004,6.97500e+000,-7.17336e+001,6.97500e+000,1.37221e+001,6.97500e+000,-8.02788e+001
4.66000e-001,-2.30289e-004,6.99000e+000,-7.17543e+001,6.99000e+000,1.36302e+001,6.99000e+000,-8.01465e+001
4.67000e-001,-2.20554e-004,7.00500e+000,-7.17839e+001,7.00500e+000,1.35491e+001,7.00500e+000,-8.00149e+001
4.68000e-001,-1.97055e-004,7.02000e+000,-7.18342e+001,7.02000e+000,1.33881e+001,7.02000e+000,-7.98269e+001
4.69000e-001,-1.87655e-004,7.03500e+000,-7.18510e+001,7.03500e+000,1.32929e+001,7.03500e+000,-7.97239e+001
4.70000e-001,-1.77920e-004,7.05000e+000,-7.18396e+001,7.05000e+000,1.32018e+001,7.05000e+000,-7.96595e+001
4.71000e-001,-1.76242e-004,7.06500e+000,-7.18157e+001,7.06500e+000,1.30873e+001,7.06500e+000,-7.96280e+001
4.72000e-001,-1.72885e-004,7.08000e+000,-7.18157e+001,7.08000e+000,1.30049e+001,7.08000e+000,-7.96460e+001
4.73000e-001,-1.90005e-004,7.09500e+000,-7.18595e+001,7.09500e+000,1.28457e+001,7.09500e+000,-7.95683e+001
4.74000e-001,-1.80270e-004,7.11000e+000,-7.18887e+001,7.11000e+000,1.27386e+001,7.11000e+000,-7.94072e+001
4.75000e-001,-1.65499e-004,7.12500e+000,-7.19529e+001,7.12500e+000,1.26317e+001,7.12500e+000,-7.90332e+001
4.76000e-001,-1.44686e-004,7.14000e+000,-7.20148e+001,7.14000e+000,1.25061e+001,7.14000e+000,-7.86871e+001
4.77000e-001,-1.37972e-004,7.15500e+000,-7.20788e+001,7.15500e+000,1.23371e+001,7.15500e+000,-7.82561e+001
4.78000e-001,-1.24544e-004,7.17000e+000,-7.21651e+001,7.17000e+000,1.21154e+001,7.17000e+000,-7.75873e+001
4.79000e-001,-1.17159e-004,7.18500e+000,-7.22112e+001,7.18500e+000,1.19784e+001,7.18500e+000,-7.70149e+001
4.80000e-001,-1.21523e-004,7.20000e+000,-7.23399e+001,7.20000e+000,1.17541e+001,7.20000e+000,-7.61709e+001
4.81000e-001,-1.26558e-004,7.21500e+000,-7.24391e+001,7.21500e+000,1.15470e+001,7.21500e+000,-7.55446e+001
4.82000e-001,-1.31929e-004,7.23000e+000,-7.24749e+001,7.23000e+000,1.13694e+001,7.23000e+000,-7.49010e+001
4.83000e-001,-1.21859e-004,7.24500e+000,-7.23922e+001,7.24500e+000,1.12189e+001,7.24500e+000,-7.39009e+001
4.84000e-001,-1.10445e-004,7.26000e+000,-7.23161e+001,7.26000e+000,1.10959e+001,7.26000e+000,-7.30300e+001
4.85000e-001,-8.29175e-005,7.27500e+000,-7.22171e+001,7.27500e+000,1.08945e+001,7.27500e+000,-7.18305e+001
4.86000e-001,-1.06081e-004,7.29000e+000,-7.21278e+001,7.29000e+000,1.06912e+001,7.29000e+000,-7.09173e+001
4.87000e-001,-9.29885e-005,7.30500e+000,-7.19738e+001,7.30500e+000,1.04172e+001,7.30500e+000,-6.96648e+001
4.88000e-001,-8.89601e-005,7.32000e+000,-7.18242e+001,7.32000e+000,1.01485e+001,7.32000e+000,-6.87391e+001
4.89000e-001,-7.11681e-005,7.33500e+000,-7.17102e+001,7.33500e+000,9.93546e+000,7.33500e+000,-6.79376e+001
4.90000e-001,-7.48608e-005,7.35000e+000,-7.16103e+001,7.35000e+000,9.72157e+000,7.35000e+000,-6.70845e+001
4.91000e-001,-7.28466e-005,7.36500e+000,-7.15172e+001,7.36500e+000,9.75827e+000,7.36500e+000,-6.65114e+001
4.92000e-001,-8.99672e-005,7.38000e+000,-7.13552e+001,7.38000e+000,9.84616e+000,7.38000e+000,-6.57849e+001
4.93000e-001,-1.02388e-004,7.39500e+000,-7.11933e+001,7.39500e+000,9.94353e+000,7.39500e+000,-6.52630e+001
4.94000e-001,-7.95605e-005,7.41000e+000,-7.10281e+001,7.41000e+000,1.00478e+001,7.41000e+000,-6.47870e+001
4.95000e-001,-8.62745e-005,7.42500e+000,-7.08575e+001,7.42500e+000,1.01903e+001,7.42500e+000,-6.41926e+001
4.96000e-001,-7.15038e-005,7.44000e+000,-7.07584e+001,7.44000e+000,1.03394e+001,7.44000e+000,-6.36656e+001
4.97000e-001,-4.53193e-005,7.45500e+000,-7.06276e+001,7.45500e+000,1.05553e+001,7.45500e+000,-6.29164e+001
4.98000e-001,-1.27565e-005,7.47000e+000,-7.05191e+001,7.47000e+000,1.07526e+001,7.47000e+000,-6.23787e+001
4.99000e-001,-3.28984e-005,7.48500e+000,-7.03970e+001,7.48500e+000,1.09892e+001,7.48500e+000,-6.18126e+001
5.00000e-001,-1.30922e-005,7.50000e+000,-7.02884e+001,7.50000e+000,1.12680e+001,7.50000e+000,-6.10481e+001
5.01000e-001,-1.04067e-005,7.51500e+000,-7.02741e+001,7.51500e+000,1.14266e+001,7.51500e+000,-6.05310e+001
5.02000e-001,0.00000e+000,7.53000e+000,-7.03013e+001,7.53000e+000,1.16153e+001,7.53000e+000,-5.99508e+001
5.03000e-001,-7.72107e-006,7.54500e+000,-7.03447e+001,7.54500e+000,1.17480e+001,7.54500e+000,-5.96110e+001
5.04000e-001,-2.34989e-005,7.56000e+000,-7.03886e+001,7.56000e+000,1.19140e+001,7.56000e+000,-5.92579e+001
5.05000e-001,-1.51064e-005,7.57500e+000,-7.04336e+001,7.57500e+000,1.19717e+001,7.57500e+000,-5.90002e+001
5.06000e-001,-2.04776e-005,7.59000e+000,-7.04912e+001,7.59000e+000,1.19698e+001,7.59000e+000,-5.87222e+001
5.07000e-001,-8.72816e-006,7.60500e+000,-7.06026e+001,7.60500e+000,1.19102e+001,7.60500e+000,-5.82679e+001
5.08000e-001,-2.11490e-005,7.62000e+000,-7.07636e+001,7.62000e+000,1.18525e+001,7.62000e+000,-5.78398e+001
5.09000e-001,-2.78630e-005,7.63500e+000,-7.10244e+001,7.63500e+000,1.18314e+001,7.63500e+000,-5.72088e+001
5.10000e-001,-3.25628e-005,7.65000e+000,-7.12593e+001,7.65000e+000,1.18588e+001,7.65000e+000,-5.67142e+001
5.11000e-001,-3.55840e-005,7.66500e+000,-7.14615e+001,7.66500e+000,1.18920e+001,7.66500e+000,-5.63030e+001
5.12000e-001,-5.40475e-005,7.68000e+000,-7.17215e+001,7.68000e+000,1.18884e+001,7.68000e+000,-5.59293e+001
5.13000e-001,-7.01610e-005,7.69500e+000,-7.19061e+001,7.69500e+000,1.18307e+001,7.69500e+000,-5.57832e+001
5.14000e-001,-6.88182e-005,7.71000e+000,-7.21265e+001,7.71000e+000,1.17617e+001,7.71000e+000,-5.58026e+001
5.15000e-001,-7.31823e-005,7.72500e+000,-7.22880e+001,7.72500e+000,1.17291e+001,7.72500e+000,-5.59159e+001
5.16000e-001,-8.69459e-005,7.74000e+000,-7.24644e+001,7.74000e+000,1.17547e+001,7.74000e+000,-5.61050e+001
5.17000e-001,-1.18502e-004,7.75500e+000,-7.25519e+001,7.75500e+000,1.18615e+001,7.75500e+000,-5.62774e+001
5.18000e-001,-1.06752e-004,7.77000e+000,-7.26037e+001,7.77000e+000,1.20529e+001,7.77000e+000,-5.65268e+001
5.19000e-001,-1.06416e-004,7.78500e+000,-7.26332e+001,7.78500e+000,1.24166e+001,7.78500e+000,-5.69714e+001
5.20000e-001,-9.43313e-005,7.80000e+000,-7.26028e+001,7.80000e+000,1.27283e+001,7.80000e+000,-5.74460e+001
5.21000e-001,-1.06416e-004,7.81500e+000,-7.23766e+001,7.81500e+000,1.31487e+001,7.81500e+000,-5.82092e+001
5.22000e-001,-9.70169e-005,7.83000e+000,-7.21480e+001,7.83000e+000,1.35436e+001,7.83000e+000,-5.89837e+001
5.23000e-001,-8.29175e-005,7.84500e+000,-7.18045e+001,7.84500e+000,1.39778e+001,7.84500e+000,-5.98600e+001
5.24000e-001,-6.34470e-005,7.86000e+000,-7.13045e+001,7.86000e+000,1.46668e+001,7.86000e+000,-6.12538e+001
5.25000e-001,-6.41184e-005,7.87500e+000,-7.08931e+001,7.87500e+000,1.52994e+001,7.87500e+000,-6.24304e+001
5.26000e-001,-8.62745e-005,7.89000e+000,-7.03784e+001,7.89000e+000,1.62473e+001,7.89000e+000,-6.40324e+001
5.27000e-001,-7.55322e-005,7.90500e+000,-7.00139e+001,7.90500e+000,1.70008e+001,7.90500e+000,-6.51250e+001
5.28000e-001,-4.33051e-005,7.92000e+000,-6.95585e+001,7.92000e+000,1.77588e+001,7.92000e+000,-6.61018e+001
5.29000e-001,-1.77920e-005,7.93500e+000,-6.89164e+001,7.93500e+000,1.88462e+001,7.93500e+000,-6.73425e+001
5.30000e-001,-4.33051e-005,7.95000e+000,-6.83967e+001,7.95000e+000,1.97312e+001,7.95000e+000,-6.82799e+001
5.31000e-001,3.69268e-006,7.96500e+000,-6.77022e+001,7.96500e+000,2.10183e+001,7.96500e+000,-6.95986e+001
5.32000e-001,1.30922e-005,7.98000e+000,-6.72642e+001,7.98000e+000,2.19799e+001,7.98000e+000,-7.07117e+001
5.33000e-001,3.18914e-005,7.99500e+000,-6.67962e+001,7.99500e+000,2.32280e+001,7.99500e+000,-7.23124e+001
5.34000e-001,2.11490e-005,8.01000e+000,-6.64749e+001,8.01000e+000,2.40630e+001,8.01000e+000,-7.35812e+001
5.35000e-001,2.04776e-005,8.02500e+000,-6.61717e+001,8.02500e+000,2.48318e+001,8.02500e+000,-7.48845e+001
5.36000e-001,4.69978e-006,8.04000e+000,-6.58148e+001,8.04000e+000,2.58233e+001,8.04000e+000,-7.67143e+001
5.37000e-001,-2.01419e-006,8.05500e+000,-6.55739e+001,8.05500e+000,2.66067e+001,8.05500e+000,-7.80604e+001
5.38000e-001,-1.81277e-005,8.07000e+000,-6.52072e+001,8.07000e+000,2.76609e+001,8.07000e+000,-7.97295e+001
5.39000e-001,-1.57778e-005,8.08500e+000,-6.48962e+001,8.08500e+000,2.84822e+001,8.08500e+000,-8.08949e+001
5.40000e-001,-4.36408e-006,8.10000e+000,-6.45664e+001,8.10000e+000,2.92735e+001,8.10000e+000,-8.19474e+001
5.41000e-001,-2.58488e-005,8.11500e+000,-6.41357e+001,8.11500e+000,3.00993e+001,8.11500e+000,-8.32740e+001
5.42000e-001,0.00000e+000,8.13000e+000,-6.38658e+001,8.13000e+000,3.04951e+001,8.13000e+000,-8.42390e+001
5.43000e-001,-1.24208e-005,8.14500e+000,-6.35312e+001,8.14500e+000,3.08431e+001,8.14500e+000,-8.54478e+001
5.44000e-001,-8.05676e-006,8.16000e+000,-6.32337e+001,8.16000e+000,3.11542e+001,8.16000e+000,-8.62990e+001
5.45000e-001,3.69268e-006,8.17500e+000,-6.28484e+001,8.17500e+000,3.15640e+001,8.17500e+000,-8.74687e+001
5.46000e-001,7.38537e-006,8.19000e+000,-6.26955e+001,8.19000e+000,3.19079e+001,8.19000e+000,-8.83956e+001
5.47000e-001,-2.58488e-005,8.20500e+000,-6.25602e+001,8.20500e+000,3.23266e+001,8.20500e+000,-8.92767e+001
5.48000e-001,-3.45769e-005,8.22000e+000,-6.23852e+001,8.22000e+000,3.28104e+001,8.22000e+000,-9.04205e+001
5.49000e-001,-1.71206e-005,8.23500e+000,-6.22994e+001,8.23500e+000,3.31202e+001,8.23500e+000,-9.12862e+001
5.50000e-001,-3.32342e-005,8.25000e+000,-6.22309e+001,8.25000e+000,3.34638e+001,8.25000e+000,-9.24275e+001
5.51000e-001,-2.58488e-005,8.26500e+000,-6.22525e+001,8.26500e+000,3.36773e+001,8.26500e+000,-9.32864e+001
5.52000e-001,-4.86763e-005,8.28000e+000,-6.22812e+001,8.28000e+000,3.39135e+001,8.28000e+000,-9.41469e+001
5.53000e-001,-5.30404e-005,8.29500e+000,-6.22830e+001,8.29500e+000,3.42441e+001,8.29500e+000,-9.51439e+001
5.54000e-001,-5.97543e-005,8.31000e+000,-6.22743e+001,8.31000e+000,3.44383e+001,8.31000e+000,-9.58363e+001
5.55000e-001,-4.06195e-005,8.32500e+000,-6.23170e+001,8.32500e+000,3.46435e+001,8.32500e+000,-9.67105e+001
5.56000e-001,-4.90120e-005,8.34000e+000,-6.23452e+001,8.34000e+000,3.47917e+001,8.34000e+000,-9.72829e+001
5.57000e-001,-7.45251e-005,8.35500e+000,-6.23965e+001,8.35500e+000,3.49237e+001,8.35500e+000,-9.78550e+001
5.58000e-001,-6.37827e-005,8.37000e+000,-6.25192e+001,8.37000e+000,3.50850e+001,8.37000e+000,-9.85606e+001
5.59000e-001,-4.39765e-005,8.38500e+000,-6.26527e+001,8.38500e+000,3.52128e+001,8.38500e+000,-9.90387e+001
5.60000e-001,-4.39765e-005,8.40000e+000,-6.28351e+001,8.40000e+000,3.53512e+001,8.40000e+000,-9.96424e+001
5.61000e-001,-5.94186e-005,8.41500e+000,-6.29716e+001,8.41500e+000,3.53931e+001,8.41500e+000,-1.00067e+002
5.62000e-001,-4.73335e-005,8.43000e+000,-6.31407e+001,8.43000e+000,3.53398e+001,8.43000e+000,-1.00501e+002
5.63000e-001,-3.72625e-005,8.44500e+000,-6.32758e+001,8.44500e+000,3.51698e+001,8.44500e+000,-1.00762e+002
5.64000e-001,-4.33051e-005,8.46000e+000,-6.34461e+001,8.46000e+000,3.49591e+001,8.46000e+000,-1.00982e+002
5.65000e-001,-7.55322e-005,8.47500e+000,-6.36926e+001,8.47500e+000,3.46860e+001,8.47500e+000,-1.01224e+002
5.66000e-001,-6.00900e-005,8.49000e+000,-6.38990e+001,8.49000e+000,3.44810e+001,8.49000e+000,-1.01458e+002
5.67000e-001,-6.21042e-005,8.50500e+000,-6.41464e+001,8.50500e+000,3.42526e+001,8.50500e+000,-1.01702e+002
5.68000e-001,-6.71397e-005,8.52000e+000,-6.42398e+001,8.52000e+000,3.42029e+001,8.52000e+000,-1.01775e+002
5.69000e-001,-5.67330e-005,8.53500e+000,-6.42808e+001,8.53500e+000,3.41748e+001,8.53500e+000,-1.01775e+002
5.70000e-001,-7.68750e-005,8.55000e+000,-6.43249e+001,8.55000e+000,3.41401e+001,8.55000e+000,-1.01766e+002
5.71000e-001,-8.49317e-005,8.56500e+000,-6.43234e+001,8.56500e+000,3.41741e+001,8.56500e+000,-1.01682e+002
5.72000e-001,-9.76883e-005,8.58000e+000,-6.43276e+001,8.58000e+000,3.42025e+001,8.58000e+000,-1.01532e+002
5.73000e-001,-8.25818e-005,8.59500e+000,-6.43562e+001,8.59500e+000,3.41688e+001,8.59500e+000,-1.01418e+002
5.74000e-001,-8.89601e-005,8.61000e+000,-6.44032e+001,8.61000e+000,3.40756e+001,8.61000e+000,-1.01284e+002
5.75000e-001,-7.98962e-005,8.62500e+000,-6.44476e+001,8.62500e+000,3.40063e+001,8.62500e+000,-1.01172e+002
5.76000e-001,-6.10971e-005,8.64000e+000,-6.45085e+001,8.64000e+000,3.39126e+001,8.64000e+000,-1.01037e+002
5.77000e-001,-3.79339e-005,8.65500e+000,-6.45705e+001,8.65500e+000,3.38107e+001,8.65500e+000,-1.00769e+002
5.78000e-001,-5.00191e-005,8.67000e+000,-6.45837e+001,8.67000e+000,3.37776e+001,8.67000e+000,-1.00518e+002
5.79000e-001,-4.26337e-005,8.68500e+000,-6.46047e+001,8.68500e+000,3.36873e+001,8.68500e+000,-1.00193e+002
5.80000e-001,-2.71916e-005,8.70000e+000,-6.46516e+001,8.70000e+000,3.35943e+001,8.70000e+000,-9.99721e+001
5.81000e-001,-2.85344e-005,8.71500e+000,-6.47086e+001,8.71500e+000,3.35388e+001,8.71500e+000,-9.97758e+001
5.82000e-001,-2.11490e-005,8.73000e+000,-6.47685e+001,8.73000e+000,3.34675e+001,8.73000e+000,-9.94685e+001
5.83000e-001,-2.08133e-005,8.74500e+000,-6.48252e+001,8.74500e+000,3.33922e+001,8.74500e+000,-9.92743e+001
5.84000e-001,-2.01419e-006,8.76000e+000,-6.48845e+001,8.76000e+000,3.33287e+001,8.76000e+000,-9.90117e+001
5.85000e-001,-7.72107e-006,8.77500e+000,-6.49017e+001,8.77500e+000,3.33266e+001,8.77500e+000,-9.88315e+001
5.86000e-001,2.01419e-006,8.79000e+000,-6.48908e+001,8.79000e+000,3.33187e+001,8.79000e+000,-9.85367e+001
5.87000e-001,-2.78630e-005,8.80500e+000,-6.48709e+001,8.80500e+000,3.33298e+001,8.80500e+000,-9.83033e+001
5.88000e-001,-2.21561e-005,8.82000e+000,-6.48620e+001,8.82000e+000,3.33379e+001,8.82000e+000,-9.80765e+001
5.89000e-001,-1.24208e-005,8.83500e+000,-6.48858e+001,8.83500e+000,3.33358e+001,8.83500e+000,-9.78233e+001
5.90000e-001,-5.70687e-006,8.85000e+000,-6.49114e+001,8.85000e+000,3.33121e+001,8.85000e+000,-9.76713e+001
5.91000e-001,-2.78630e-005,8.86500e+000,-6.50029e+001,8.86500e+000,3.32548e+001,8.86500e+000,-9.75320e+001
5.92000e-001,-4.33051e-005,8.88000e+000,-6.50705e+001,8.88000e+000,3.32042e+001,8.88000e+000,-9.73726e+001
5.93000e-001,-4.59907e-005,8.89500e+000,-6.51167e+001,8.89500e+000,3.31551e+001,8.89500e+000,-9.71606e+001
5.94000e-001,-5.13619e-005,8.91000e+000,-6.51674e+001,8.91000e+000,3.30965e+001,8.91000e+000,-9.68084e+001
5.95000e-001,-2.51774e-005,8.92500e+000,-6.52446e+001,8.92500e+000,3.30841e+001,8.92500e+000,-9.65771e+001
5.96000e-001,-3.99481e-005,8.94000e+000,-6.54554e+001,8.94000e+000,3.30919e+001,8.94000e+000,-9.64213e+001
5.97000e-001,-4.09552e-005,8.95500e+000,-6.56976e+001,8.95500e+000,3.30858e+001,8.95500e+000,-9.63793e+001
5.98000e-001,-3.86053e-005,8.97000e+000,-6.59707e+001,8.97000e+000,3.30310e+001,8.97000e+000,-9.63770e+001
5.99000e-001,-2.21561e-005,8.98500e+000,-6.63449e+001,8.98500e+000,3.28227e+001,8.98500e+000,-9.63148e+001
6.00000e-001,-4.09552e-005,9.00000e+000,-6.66008e+001,9.00000e+000,3.25820e+001,9.00000e+000,-9.61305e+001
6.01000e-001,-4.19623e-005,9.01500e+000,-6.69110e+001,9.01500e+000,3.21698e+001,9.01500e+000,-9.58398e+001
6.02000e-001,-5.00191e-005,9.03000e+000,-6.70958e+001,9.03000e+000,3.18047e+001,9.03000e+000,-9.55146e+001
6.03000e-001,-5.13619e-005,9.04500e+000,-6.72059e+001,9.04500e+000,3.12968e+001,9.04500e+000,-9.47477e+001
6.04000e-001,-5.47189e-005,9.06000e+000,-6.71520e+001,9.06000e+000,3.08679e+001,9.06000e+000,-9.39347e+001
6.05000e-001,-7.78820e-005,9.07500e+000,-6.70756e+001,9.07500e+000,3.03643e+001,9.07500e+000,-9.29974e+001
6.06000e-001,-7.41894e-005,9.09000e+000,-6.70895e+001,9.09000e+000,2.96066e+001,9.09000e+000,-9.16836e+001
6.07000e-001,-8.09033e-005,9.10500e+000,-6.73199e+001,9.10500e+000,2.89114e+001,9.10500e+000,-9.08297e+001
6.08000e-001,-7.25109e-005,9.12000e+000,-6.79345e+001,9.12000e+000,2.78480e+001,9.12000e+000,-8.98523e+001
6.09000e-001,-8.89601e-005,9.13500e+000,-6.85873e+001,9.13500e+000,2.69496e+001,9.13500e+000,-8.91333e+001
6.10000e-001,-7.08324e-005,9.15000e+000,-6.93432e+001,9.15000e+000,2.60015e+001,9.15000e+000,-8.83997e+001
6.11000e-001,-6.34470e-005,9.16500e+000,-7.02850e+001,9.16500e+000,2.46542e+001,9.16500e+000,-8.71771e+001
6.12000e-001,-4.56550e-005,9.18000e+000,-7.08907e+001,9.18000e+000,2.36528e+001,9.18000e+000,-8.60375e+001
6.13000e-001,-3.05486e-005,9.19500e+000,-7.15870e+001,9.19500e+000,2.24061e+001,9.19500e+000,-8.42611e+001
6.14000e-001,-3.96124e-005,9.21000e+000,-7.20883e+001,9.21000e+000,2.15693e+001,9.21000e+000,-8.27796e+001
6.15000e-001,-6.14328e-005,9.22500e+000,-7.27952e+001,9.22500e+000,2.06001e+001,9.22500e+000,-8.07190e+001
6.16000e-001,-4.06195e-005,9.24000e+000,-7.34104e+001,9.24000e+000,1.98301e+001,9.24000e+000,-7.91553e+001
6.17000e-001,-3.99481e-005,9.25500e+000,-7.40863e+001,9.25500e+000,1.90526e+001,9.25500e+000,-7.76329e+001
6.18000e-001,-5.06905e-005,9.27000e+000,-7.50177e+001,9.27000e+000,1.81377e+001,9.27000e+000,-7.56352e+001
6.19000e-001,-2.48417e-005,9.28500e+000,-7.57371e+001,9.28500e+000,1.74117e+001,9.28500e+000,-7.41298e+001
6.20000e-001,-1.94705e-005,9.30000e+000,-7.67222e+001,9.30000e+000,1.64050e+001,9.30000e+000,-7.20228e+001
6.21000e-001,-1.54421e-005,9.31500e+000,-7.74315e+001,9.31500e+000,1.56091e+001,9.31500e+000,-7.04014e+001
6.22000e-001,-3.05486e-005,9.33000e+000,-7.81561e+001,9.33000e+000,1.48341e+001,9.33000e+000,-6.87273e+001
6.23000e-001,-2.98772e-005,9.34500e+000,-7.91466e+001,9.34500e+000,1.38191e+001,9.34500e+000,-6.64549e+001
6.24000e-001,-4.90120e-005,9.36000e+000,-7.99669e+001,9.36000e+000,1.30575e+001,9.36000e+000,-6.46964e+001
6.25000e-001,-4.80049e-005,9.37500e+000,-8.12506e+001,9.37500e+000,1.21216e+001,9.37500e+000,-6.24285e+001
6.26000e-001,-2.18204e-005,9.39000e+000,-8.22423e+001,9.39000e+000,1.14951e+001,9.39000e+000,-6.12115e+001
6.27000e-001,-4.26337e-005,9.40500e+000,-8.32415e+001,9.40500e+000,1.09126e+001,9.40500e+000,-6.01387e+001
6.28000e-001,-6.78111e-005,9.42000e+000,-8.47048e+001,9.42000e+000,1.02119e+001,9.42000e+000,-5.86070e+001
6.29000e-001,-9.29885e-005,9.43500e+000,-8.57135e+001,9.43500e+000,9.64433e+000,9.43500e+000,-5.75572e+001
6.30000e-001,-7.01610e-005,9.45000e+000,-8.67167e+001,9.45000e+000,8.89379e+000,9.45000e+000,-5.65113e+001
6.31000e-001,-9.97024e-005,9.46500e+000,-8.71887e+001,9.46500e+000,8.46251e+000,9.46500e+000,-5.60606e+001
6.32000e-001,-8.76173e-005,9.48000e+000,-8.75793e+001,9.48000e+000,8.36483e+000,9.48000e+000,-5.57642e+001
6.33000e-001,-9.19814e-005,9.49500e+000,-8.77362e+001,9.49500e+000,8.49893e+000,9.49500e+000,-5.57797e+001
6.34000e-001,-6.41184e-005,9.51000e+000,-8.78630e+001,9.51000e+000,8.62163e+000,9.51000e+000,-5.59673e+001
6.35000e-001,-6.21042e-005,9.52500e+000,-8.79148e+001,9.52500e+000,8.76883e+000,9.52500e+000,-5.65223e+001
6.36000e-001,-4.93477e-005,9.54000e+000,-8.77113e+001,9.54000e+000,8.88566e+000,9.54000e+000,-5.69826e+001
6.37000e-001,-4.19623e-005,9.55500e+000,-8.74070e+001,9.55500e+000,9.01985e+000,9.55500e+000,-5.74846e+001
6.38000e-001,-3.65911e-005,9.57000e+000,-8.71304e+001,9.57000e+000,9.20004e+000,9.57000e+000,-5.78281e+001
6.39000e-001,-4.12909e-005,9.58500e+000,-8.68993e+001,9.58500e+000,9.37113e+000,9.58500e+000,-5.81816e+001
6.40000e-001,-5.13619e-005,9.60000e+000,-8.66733e+001,9.60000e+000,9.50081e+000,9.60000e+000,-5.87507e+001
6.41000e-001,-3.72625e-005,9.61500e+000,-8.65883e+001,9.61500e+000,9.55954e+000,9.61500e+000,-5.92540e+001
6.42000e-001,-5.06905e-005,9.63000e+000,-8.65562e+001,9.63000e+000,9.52465e+000,9.63000e+000,-5.99678e+001
6.43000e-001,-4.46479e-005,9.64500e+000,-8.65597e+001,9.64500e+000,9.43981e+000,9.64500e+000,-6.05252e+001
6.44000e-001,-6.44541e-005,9.66000e+000,-8.65536e+001,9.66000e+000,9.33957e+000,9.66000e+000,-6.13022e+001
6.45000e-001,-5.84115e-005,9.67500e+000,-8.65285e+001,9.67500e+000,9.27952e+000,9.67500e+000,-6.18754e+001
6.46000e-001,-5.97543e-005,9.69000e+000,-8.65157e+001,9.69000e+000,9.22688e+000,9.69000e+000,-6.23780e+001
6.47000e-001,-6.34470e-005,9.70500e+000,-8.65180e+001,9.70500e+000,9.13534e+000,9.70500e+000,-6.30590e+001
6.48000e-001,-6.68040e-005,9.72000e+000,-8.65557e+001,9.72000e+000,9.01105e+000,9.72000e+000,-6.35883e+001
6.49000e-001,-5.03548e-005,9.73500e+000,-8.66410e+001,9.73500e+000,8.77105e+000,9.73500e+000,-6.42706e+001
6.50000e-001,-1.84634e-005,9.75000e+000,-8.66854e+001,9.75000e+000,8.59040e+000,9.75000e+000,-6.47851e+001
6.51000e-001,-4.33051e-005,9.76500e+000,-8.67001e+001,9.76500e+000,8.40857e+000,9.76500e+000,-6.52803e+001
6.52000e-001,-6.47898e-005,9.78000e+000,-8.66548e+001,9.78000e+000,8.21633e+000,9.78000e+000,-6.58396e+001
6.53000e-001,-1.44350e-005,9.79500e+000,-8.65706e+001,9.79500e+000,8.16596e+000,9.79500e+000,-6.62255e+001
6.54000e-001,4.36408e-006,9.81000e+000,-8.64228e+001,9.81000e+000,8.21381e+000,9.81000e+000,-6.66859e+001
6.55000e-001,2.04776e-005,9.82500e+000,-8.62950e+001,9.82500e+000,8.31881e+000,9.82500e+000,-6.69414e+001
6.56000e-001,3.79339e-005,9.84000e+000,-8.61784e+001,9.84000e+000,8.44247e+000,9.84000e+000,-6.71940e+001
6.57000e-001,9.56741e-005,9.85500e+000,-8.60765e+001,9.85500e+000,8.53715e+000,9.85500e+000,-6.74670e+001
6.58000e-001,9.23171e-005,9.87000e+000,-8.60591e+001,9.87000e+000,8.51076e+000,9.87000e+000,-6.76485e+001
6.59000e-001,1.31258e-004,9.88500e+000,-8.61296e+001,9.88500e+000,8.41796e+000,9.88500e+000,-6.78260e+001
6.60000e-001,1.46700e-004,9.90000e+000,-8.62033e+001,9.90000e+000,8.38767e+000,9.90000e+000,-6.79183e+001
6.61000e-001,1.48714e-004,9.91500e+000,-8.62380e+001,9.91500e+000,8.58470e+000,9.91500e+000,-6.79532e+001
6.62000e-001,1.18502e-004,9.93000e+000,-8.62204e+001,9.93000e+000,8.87186e+000,9.93000e+000,-6.79924e+001
6.63000e-001,9.63455e-005,9.94500e+000,-8.62209e+001,9.94500e+000,9.20119e+000,9.94500e+000,-6.81730e+001
6.64000e-001,1.18837e-004,9.96000e+000,-8.61867e+001,9.96000e+000,9.69489e+000,9.96000e+000,-6.86490e+001
6.65000e-001,1.85641e-004,9.97500e+000,-8.61349e+001,9.97500e+000,1.00887e+001,9.97500e+000,-6.92225e+001
6.66000e-001,1.44686e-004,9.99000e+000,-8.60248e+001,9.99000e+000,1.07052e+001,9.99000e+000,-7.01978e+001
6.67000e-001,1.74899e-004,1.00050e+001,-8.58880e+001,1.00050e+001,1.12342e+001,1.00050e+001,-7.10164e+001
6.68000e-001,1.44350e-004,1.00200e+001,-8.56796e+001,1.00200e+001,1.19169e+001,1.00200e+001,-7.18578e+001
6.69000e-001,1.29580e-004,1.00350e+001,-8.53371e+001,1.00350e+001,1.32930e+001,1.00350e+001,-7.28263e+001
6.70000e-001,1.72885e-004,1.00500e+001,-8.50463e+001,1.00500e+001,1.46027e+001,1.00500e+001,-7.34994e+001
6.71000e-001,2.46738e-004,1.00650e+001,-8.45772e+001,1.00650e+001,1.64782e+001,1.00650e+001,-7.42612e+001
6.72000e-001,2.80308e-004,1.00800e+001,-8.41624e+001,1.00800e+001,1.78044e+001,1.00800e+001,-7.47373e+001
6.73000e-001,2.67552e-004,1.00950e+001,-8.36389e+001,1.00950e+001,1.95368e+001,1.00950e+001,-7.54453e+001
6.74000e-001,2.91722e-004,1.01100e+001,-8.33204e+001,1.01100e+001,2.08704e+001,1.01100e+001,-7.60828e+001
6.75000e-001,2.27939e-004,1.01250e+001,-8.30373e+001,1.01250e+001,2.23465e+001,1.01250e+001,-7.70708e+001
6.76000e-001,1.99741e-004,1.01400e+001,-8.26222e+001,1.01400e+001,2.40327e+001,1.01400e+001,-7.77678e+001
6.77000e-001,2.36332e-004,1.01550e+001,-8.20640e+001,1.01550e+001,2.51291e+001,1.01550e+001,-7.82963e+001
6.78000e-001,3.38048e-004,1.01700e+001,-8.14118e+001,1.01700e+001,2.68190e+001,1.01700e+001,-7.96988e+001
6.79000e-001,2.70237e-004,1.01850e+001,-8.11062e+001,1.01850e+001,2.77410e+001,1.01850e+001,-8.06345e+001
6.80000e-001,3.05486e-004,1.02000e+001,-8.07808e+001,1.02000e+001,2.87321e+001,1.02000e+001,-8.15876e+001
6.81000e-001,4.07538e-004,1.02150e+001,-8.05000e+001,1.02150e+001,3.01770e+001,1.02150e+001,-8.31306e+001
6.82000e-001,4.39765e-004,1.02300e+001,-8.04092e+001,1.02300e+001,3.12114e+001,1.02300e+001,-8.43626e+001
6.83000e-001,6.20706e-004,1.02450e+001,-8.03649e+001,1.02450e+001,3.24795e+001,1.02450e+001,-8.58869e+001
6.84000e-001,2.00916e-003,1.02600e+001,-8.03307e+001,1.02600e+001,3.33370e+001,1.02600e+001,-8.69468e+001
6.85000e-001,6.45716e-003,1.02750e+001,-8.02577e+001,1.02750e+001,3.43882e+001,1.02750e+001,-8.82340e+001
6.86000e-001,7.49245e-003,1.02900e+001,-8.01289e+001,1.02900e+001,3.52148e+001,1.02900e+001,-8.90880e+001
6.87000e-001,8.42167e-003,1.03050e+001,-7.99109e+001,1.03050e+001,3.61280e+001,1.03050e+001,-8.97681e+001
6.88000e-001,9.69195e-003,1.03200e+001,-7.95630e+001,1.03200e+001,3.73479e+001,1.03200e+001,-9.04349e+001
6.89000e-001,9.39889e-003,1.03350e+001,-7.93295e+001,1.03350e+001,3.81829e+001,1.03350e+001,-9.08904e+001
6.90000e-001,4.26841e-003,1.03500e+001,-7.90270e+001,1.03500e+001,3.92148e+001,1.03500e+001,-9.14029e+001
6.91000e-001,1.79196e-003,1.03650e+001,-7.87586e+001,1.03650e+001,3.99262e+001,1.03650e+001,-9.17386e+001
6.92000e-001,-6.84489e-004,1.03800e+001,-7.84955e+001,1.03800e+001,4.05085e+001,1.03800e+001,-9.20767e+001
6.93000e-001,-4.66957e-004,1.03950e+001,-7.82395e+001,1.03950e+001,4.12012e+001,1.03950e+001,-9.26119e+001
6.94000e-001,-6.85496e-004,1.04100e+001,-7.81085e+001,1.04100e+001,4.17468e+001,1.04100e+001,-9.30503e+001
6.95000e-001,-7.44579e-004,1.04250e+001,-7.79953e+001,1.04250e+001,4.24011e+001,1.04250e+001,-9.36670e+001
6.96000e-001,1.05107e-003,1.04400e+001,-7.79193e+001,1.04400e+001,4.28342e+001,1.04400e+001,-9.40663e+001
6.97000e-001,3.10085e-003,1.04550e+001,-7.77432e+001,1.04550e+001,4.32052e+001,1.04550e+001,-9.43364e+001
6.98000e-001,5.05058e-003,1.04700e+001,-7.74167e+001,1.04700e+001,4.36334e+001,1.04700e+001,-9.45583e+001
6.99000e-001,5.66424e-003,1.04850e+001,-7.72208e+001,1.04850e+001,4.38574e+001,1.04850e+001,-9.47882e+001
7.00000e-001,3.66281e-003,1.05000e+001,-7.70684e+001,1.05000e+001,4.41026e+001,1.05000e+001,-9.51323e+001
7.01000e-001,1.85003e-003,1.05150e+001,-7.69470e+001,1.05150e+001,4.42939e+001,1.05150e+001,-9.52758e+001
7.02000e-001,-5.12612e-004,1.05300e+001,-7.66555e+001,1.05300e+001,4.44506e+001,1.05300e+001,-9.53275e+001
7.03000e-001,-7.18831e-003,1.05450e+001,-7.64370e+001,1.05450e+001,4.44150e+001,1.05450e+001,-9.53184e+001
7.04000e-001,-1.09814e-002,1.05600e+001,-7.62778e+001,1.05600e+001,4.42680e+001,1.05600e+001,-9.53378e+001
7.05000e-001,-1.09864e-002,1.05750e+001,-7.61937e+001,1.05750e+001,4.40175e+001,1.05750e+001,-9.53851e+001
7.06000e-001,-1.07689e-002,1.05900e+001,-7.61945e+001,1.05900e+001,4.38953e+001,1.05900e+001,-9.54293e+001
7.07000e-001,-9.76916e-003,1.06050e+001,-7.62618e+001,1.06050e+001,4.37226e+001,1.06050e+001,-9.55443e+001
7.08000e-001,-8.88090e-003,1.06200e+001,-7.63220e+001,1.06200e+001,4.35698e+001,1.06200e+001,-9.56577e+001
7.09000e-001,-1.08427e-002,1.06350e+001,-7.63713e+001,1.06350e+001,4.34100e+001,1.06350e+001,-9.57836e+001
7.10000e-001,-1.02751e-002,1.06500e+001,-7.64599e+001,1.06500e+001,4.32196e+001,1.06500e+001,-9.59866e+001
7.11000e-001,-7.32628e-003,1.06650e+001,-7.65186e+001,1.06650e+001,4.31281e+001,1.06650e+001,-9.60655e+001
7.12000e-001,-5.77804e-003,1.06800e+001,-7.65874e+001,1.06800e+001,4.29958e+001,1.06800e+001,-9.61792e+001
7.13000e-001,-5.73877e-003,1.06950e+001,-7.66990e+001,1.06950e+001,4.29414e+001,1.06950e+001,-9.63609e+001
7.14000e-001,-5.79617e-003,1.07100e+001,-7.68752e+001,1.07100e+001,4.28914e+001,1.07100e+001,-9.66022e+001
7.15000e-001,-6.29871e-003,1.07250e+001,-7.69361e+001,1.07250e+001,4.28421e+001,1.07250e+001,-9.66779e+001
7.16000e-001,-5.39635e-003,1.07400e+001,-7.69394e+001,1.07400e+001,4.27478e+001,1.07400e+001,-9.66758e+001
7.17000e-001,-3.75311e-003,1.07550e+001,-7.68916e+001,1.07550e+001,4.25492e+001,1.07550e+001,-9.65767e+001
7.18000e-001,-5.62564e-003,1.07700e+001,-7.68824e+001,1.07700e+001,4.23691e+001,1.07700e+001,-9.64886e+001
7.19000e-001,-9.93735e-003,1.07850e+001,-7.69627e+001,1.07850e+001,4.21359e+001,1.07850e+001,-9.64135e+001
7.20000e-001,-9.77755e-003,1.08000e+001,-7.70869e+001,1.08000e+001,4.20119e+001,1.08000e+001,-9.63912e+001
7.21000e-001,-9.55398e-003,1.08150e+001,-7.72296e+001,1.08150e+001,4.18821e+001,1.08150e+001,-9.63869e+001
7.22000e-001,-9.41936e-003,1.08300e+001,-7.74001e+001,1.08300e+001,4.16853e+001,1.08300e+001,-9.63265e+001
7.23000e-001,-9.26091e-003,1.08450e+001,-7.74876e+001,1.08450e+001,4.15266e+001,1.08450e+001,-9.62547e+001
7.24000e-001,-9.10582e-003,1.08600e+001,-7.75865e+001,1.08600e+001,4.13661e+001,1.08600e+001,-9.61488e+001
7.25000e-001,-7.89697e-003,1.08750e+001,-7.76251e+001,1.08750e+001,4.13070e+001,1.08750e+001,-9.60300e+001
7.26000e-001,-3.34456e-003,1.08900e+001,-7.76537e+001,1.08900e+001,4.12701e+001,1.08900e+001,-9.58882e+001
7.27000e-001,3.55505e-004,1.09050e+001,-7.77017e+001,1.09050e+001,4.12092e+001,1.09050e+001,-9.57543e+001
7.28000e-001,4.79344e-003,1.09200e+001,-7.77243e+001,1.09200e+001,4.11620e+001,1.09200e+001,-9.56187e+001
7.29000e-001,6.52430e-003,1.09350e+001,-7.76956e+001,1.09350e+001,4.10531e+001,1.09350e+001,-9.53692e+001
7.30000e-001,7.48775e-003,1.09500e+001,-7.76236e+001,1.09500e+001,4.09560e+001,1.09500e+001,-9.51384e+001
7.31000e-001,6.93520e-003,1.09650e+001,-7.74905e+001,1.09650e+001,4.08610e+001,1.09650e+001,-9.47467e+001
7.32000e-001,6.55854e-003,1.09800e+001,-7.73600e+001,1.09800e+001,4.07900e+001,1.09800e+001,-9.44066e+001
7.33000e-001,7.31856e-003,1.09950e+001,-7.72142e+001,1.09950e+001,4.07204e+001,1.09950e+001,-9.40454e+001
7.34000e-001,7.91946e-003,1.10100e+001,-7.69883e+001,1.10100e+001,4.05884e+001,1.10100e+001,-9.35409e+001
7.35000e-001,8.15714e-003,1.10250e+001,-7.67927e+001,1.10250e+001,4.04973e+001,1.10250e+001,-9.31172e+001
7.36000e-001,8.25214e-003,1.10400e+001,-7.64810e+001,1.10400e+001,4.03549e+001,1.10400e+001,-9.24952e+001
7.37000e-001,9.97729e-003,1.10550e+001,-7.62286e+001,1.10550e+001,4.02201e+001,1.10550e+001,-9.20360e+001
7.38000e-001,9.37438e-003,1.10700e+001,-7.60071e+001,1.10700e+001,4.00459e+001,1.10700e+001,-9.16010e+001
7.39000e-001,6.13791e-003,1.10850e+001,-7.57654e+001,1.10850e+001,3.97309e+001,1.10850e+001,-9.11032e+001
7.40000e-001,3.49764e-003,1.11000e+001,-7.56233e+001,1.11000e+001,3.94586e+001,1.11000e+001,-9.07757e+001
7.41000e-001,6.63172e-003,1.11150e+001,-7.54449e+001,1.11150e+001,3.90358e+001,1.11150e+001,-9.02953e+001
7.42000e-001,7.60928e-003,1.11300e+001,-7.52563e+001,1.11300e+001,3.86712e+001,1.11300e+001,-8.97717e+001
7.43000e-001,8.44584e-003,1.11450e+001,-7.48042e+001,1.11450e+001,3.81477e+001,1.11450e+001,-8.88195e+001
7.44000e-001,1.04097e-002,1.11600e+001,-7.42569e+001,1.11600e+001,3.76872e+001,1.11600e+001,-8.78872e+001
7.45000e-001,9.66577e-003,1.11750e+001,-7.37465e+001,1.11750e+001,3.72675e+001,1.11750e+001,-8.69811e+001
7.46000e-001,1.02264e-002,1.11900e+001,-7.33317e+001,1.11900e+001,3.66233e+001,1.11900e+001,-8.60441e+001
7.47000e-001,1.01539e-002,1.12050e+001,-7.30902e+001,1.12050e+001,3.61377e+001,1.12050e+001,-8.54518e+001
7.48000e-001,9.95111e-003,1.12200e+001,-7.28024e+001,1.12200e+001,3.53827e+001,1.12200e+001,-8.46735e+001
7.49000e-001,8.92992e-003,1.12350e+001,-7.26933e+001,1.12350e+001,3.46657e+001,1.12350e+001,-8.40733e+001
7.50000e-001,8.10846e-003,1.12500e+001,-7.26897e+001,1.12500e+001,3.37582e+001,1.12500e+001,-8.35161e+001
7.51000e-001,7.36724e-003,1.12650e+001,-7.27877e+001,1.12650e+001,3.21625e+001,1.12650e+001,-8.26721e+001
7.52000e-001,5.46450e-003,1.12800e+001,-7.30985e+001,1.12800e+001,3.07675e+001,1.12800e+001,-8.20536e+001
7.53000e-001,4.40269e-003,1.12950e+001,-7.37466e+001,1.12950e+001,2.89925e+001,1.12950e+001,-8.13279e+001
7.54000e-001,2.99007e-003,1.13100e+001,-7.44171e+001,1.13100e+001,2.76670e+001,1.13100e+001,-8.08554e+001
7.55000e-001,1.43713e-003,1.13250e+001,-7.51077e+001,1.13250e+001,2.64405e+001,1.13250e+001,-8.03323e+001
7.56000e-001,-9.19478e-004,1.13400e+001,-7.59381e+001,1.13400e+001,2.49444e+001,1.13400e+001,-7.95718e+001
7.57000e-001,-3.04076e-003,1.13550e+001,-7.65319e+001,1.13550e+001,2.38202e+001,1.13550e+001,-7.89319e+001
7.58000e-001,-4.09216e-003,1.13700e+001,-7.73323e+001,1.13700e+001,2.23254e+001,1.13700e+001,-7.78587e+001
7.59000e-001,-6.77742e-003,1.13850e+001,-7.79788e+001,1.13850e+001,2.12349e+001,1.13850e+001,-7.69220e+001
7.60000e-001,-9.09776e-003,1.14000e+001,-7.89644e+001,1.14000e+001,1.98167e+001,1.14000e+001,-7.56227e+001
7.61000e-001,-9.96051e-003,1.14150e+001,-7.97135e+001,1.14150e+001,1.86268e+001,1.14150e+001,-7.47475e+001
7.62000e-001,-1.02717e-002,1.14300e+001,-8.04684e+001,1.14300e+001,1.74652e+001,1.14300e+001,-7.40672e+001
7.63000e-001,-8.83827e-003,1.14450e+001,-8.15867e+001,1.14450e+001,1.60733e+001,1.14450e+001,-7.33737e+001
7.64000e-001,-7.31722e-003,1.14600e+001,-8.24530e+001,1.14600e+001,1.52589e+001,1.14600e+001,-7.25503e+001
7.65000e-001,-6.80964e-003,1.14750e+001,-8.36442e+001,1.14750e+001,1.43402e+001,1.14750e+001,-7.12747e+001
7.66000e-001,-6.59480e-003,1.14900e+001,-8.44372e+001,1.14900e+001,1.37452e+001,1.14900e+001,-7.03550e+001
7.67000e-001,-7.20107e-003,1.15050e+001,-8.51668e+001,1.15050e+001,1.31722e+001,1.15050e+001,-6.93833e+001
7.68000e-001,-6.66496e-003,1.15200e+001,-8.61009e+001,1.15200e+001,1.23091e+001,1.15200e+001,-6.80137e+001
7.69000e-001,-6.06305e-003,1.15350e+001,-8.66670e+001,1.15350e+001,1.17817e+001,1.15350e+001,-6.68930e+001
7.70000e-001,-6.21143e-003,1.15500e+001,-8.71600e+001,1.15500e+001,1.13554e+001,1.15500e+001,-6.52611e+001
7.71000e-001,-5.90695e-003,1.15650e+001,-8.75844e+001,1.15650e+001,1.12367e+001,1.15650e+001,-6.40149e+001
7.72000e-001,-4.65782e-003,1.15800e+001,-8.81464e+001,1.15800e+001,1.11680e+001,1.15800e+001,-6.22384e+001
7.73000e-001,-3.08608e-003,1.15950e+001,-8.84591e+001,1.15950e+001,1.12756e+001,1.15950e+001,-6.08970e+001
7.74000e-001,-2.35023e-003,1.16100e+001,-8.87384e+001,1.16100e+001,1.14725e+001,1.16100e+001,-5.97108e+001
7.75000e-001,-1.54455e-003,1.16250e+001,-8.90680e+001,1.16250e+001,1.16325e+001,1.16250e+001,-5.84352e+001
7.76000e-001,-1.16051e-003,1.16400e+001,-8.92779e+001,1.16400e+001,1.16455e+001,1.16400e+001,-5.77564e+001
7.77000e-001,-1.33877e-003,1.16550e+001,-8.95195e+001,1.16550e+001,1.16635e+001,1.16550e+001,-5.71918e+001
7.78000e-001,-8.22797e-004,1.16700e+001,-8.96013e+001,1.16700e+001,1.18087e+001,1.16700e+001,-5.69413e+001
7.79000e-001,-1.41027e-003,1.16850e+001,-8.96688e+001,1.16850e+001,1.19499e+001,1.16850e+001,-5.68464e+001
7.80000e-001,-2.50163e-003,1.17000e+001,-8.97980e+001,1.17000e+001,1.20565e+001,1.17000e+001,-5.68829e+001
7.81000e-001,-2.39051e-003,1.17150e+001,-8.98642e+001,1.17150e+001,1.20805e+001,1.17150e+001,-5.67869e+001
7.82000e-001,-2.44355e-003,1.17300e+001,-8.99360e+001,1.17300e+001,1.19552e+001,1.17300e+001,-5.65951e+001
7.83000e-001,-2.98604e-003,1.17450e+001,-8.99432e+001,1.17450e+001,1.18139e+001,1.17450e+001,-5.64347e+001
7.84000e-001,-2.37876e-003,1.17600e+001,-8.99334e+001,1.17600e+001,1.16737e+001,1.17600e+001,-5.61835e+001
7.85000e-001,-1.89905e-003,1.17750e+001,-8.98951e+001,1.17750e+001,1.16129e+001,1.17750e+001,-5.60003e+001
7.86000e-001,-1.83056e-003,1.17900e+001,-8.98299e+001,1.17900e+001,1.15893e+001,1.17900e+001,-5.58253e+001
7.87000e-001,-1.60800e-003,1.18050e+001,-8.97428e+001,1.18050e+001,1.14821e+001,1.18050e+001,-5.57115e+001
7.88000e-001,-7.68414e-004,1.18200e+001,-8.96931e+001,1.18200e+001,1.13676e+001,1.18200e+001,-5.56746e+001
7.89000e-001,1.07759e-004,1.18350e+001,-8.95942e+001,1.18350e+001,1.12817e+001,1.18350e+001,-5.56462e+001
7.90000e-001,8.60060e-004,1.18500e+001,-8.95147e+001,1.18500e+001,1.11868e+001,1.18500e+001,-5.56357e+001
7.91000e-001,1.83929e-003,1.18650e+001,-8.94681e+001,1.18650e+001,1.10494e+001,1.18650e+001,-5.56412e+001
7.92000e-001,2.85310e-003,1.18800e+001,-8.94261e+001,1.18800e+001,1.08201e+001,1.18800e+001,-5.56512e+001
7.93000e-001,3.43386e-003,1.18950e+001,-8.93891e+001,1.18950e+001,1.06616e+001,1.18950e+001,-5.55920e+001
7.94000e-001,3.92801e-003,1.19100e+001,-8.93059e+001,1.19100e+001,1.05082e+001,1.19100e+001,-5.54148e+001
7.95000e-001,4.31205e-003,1.19250e+001,-8.92440e+001,1.19250e+001,1.03911e+001,1.19250e+001,-5.52953e+001
7.96000e-001,4.98882e-003,1.19400e+001,-8.91781e+001,1.19400e+001,1.02516e+001,1.19400e+001,-5.52847e+001
7.97000e-001,5.49572e-003,1.19550e+001,-8.91112e+001,1.19550e+001,1.00970e+001,1.19550e+001,-5.52806e+001
7.98000e-001,6.00095e-003,1.19700e+001,-8.90579e+001,1.19700e+001,1.00258e+001,1.19700e+001,-5.52275e+001
7.99000e-001,6.20740e-003,1.19850e+001,-8.88996e+001,1.19850e+001,1.00567e+001,1.19850e+001,-5.48798e+001
8.00000e-001,6.34000e-003,1.20000e+001,-8.86627e+001,1.20000e+001,1.01639e+001,1.20000e+001,-5.44451e+001
8.01000e-001,6.35578e-003,1.20150e+001,-8.82660e+001,1.20150e+001,1.04188e+001,1.20150e+001,-5.37489e+001
8.02000e-001,6.28461e-003,1.20300e+001,-8.80143e+001,1.20300e+001,1.05834e+001,1.20300e+001,-5.33181e+001
8.03000e-001,6.21210e-003,1.20450e+001,-8.78337e+001,1.20450e+001,1.06215e+001,1.20450e+001,-5.31082e+001
8.04000e-001,6.03955e-003,1.20600e+001,-8.76808e+001,1.20600e+001,1.05949e+001,1.20600e+001,-5.30493e+001
8.05000e-001,5.78509e-003,1.20750e+001,-8.76056e+001,1.20750e+001,1.05387e+001,1.20750e+001,-5.31124e+001
8.06000e-001,5.72802e-003,1.20900e+001,-8.75079e+001,1.20900e+001,1.05223e+001,1.20900e+001,-5.33449e+001
8.07000e-001,5.68740e-003,1.21050e+001,-8.74306e+001,1.21050e+001,1.05477e+001,1.21050e+001,-5.36192e+001
8.08000e-001,5.62463e-003,1.21200e+001,-8.73860e+001,1.21200e+001,1.05714e+001,1.21200e+001,-5.39579e+001
8.09000e-001,5.43194e-003,1.21350e+001,-8.73436e+001,1.21350e+001,1.06319e+001,1.21350e+001,-5.45461e+001
8.10000e-001,5.16808e-003,1.21500e+001,-8.72966e+001,1.21500e+001,1.06515e+001,1.21500e+001,-5.51373e+001
8.11000e-001,4.86863e-003,1.21650e+001,-8.72261e+001,1.21650e+001,1.06032e+001,1.21650e+001,-5.62562e+001
8.12000e-001,4.43357e-003,1.21800e+001,-8.71321e+001,1.21800e+001,1.05662e+001,1.21800e+001,-5.73962e+001
8.13000e-001,3.87765e-003,1.21950e+001,-8.70142e+001,1.21950e+001,1.04291e+001,1.21950e+001,-5.95163e+001
8.14000e-001,3.31133e-003,1.22100e+001,-8.69149e+001,1.22100e+001,1.03944e+001,1.22100e+001,-6.12497e+001
8.15000e-001,2.79805e-003,1.22250e+001,-8.67690e+001,1.22250e+001,1.04661e+001,1.22250e+001,-6.29741e+001
8.16000e-001,2.20185e-003,1.22400e+001,-8.65095e+001,1.22400e+001,1.07209e+001,1.22400e+001,-6.51624e+001
8.17000e-001,1.32534e-003,1.22550e+001,-8.62661e+001,1.22550e+001,1.10898e+001,1.22550e+001,-6.67259e+001
8.18000e-001,2.86351e-004,1.22700e+001,-8.58200e+001,1.22700e+001,1.20706e+001,1.22700e+001,-6.86680e+001
8.19000e-001,-7.32494e-004,1.22850e+001,-8.51186e+001,1.22850e+001,1.33777e+001,1.22850e+001,-7.02337e+001
8.20000e-001,-1.71945e-003,1.23000e+001,-8.47470e+001,1.23000e+001,1.47440e+001,1.23000e+001,-7.15775e+001
8.21000e-001,-2.47779e-003,1.23150e+001,-8.41371e+001,1.23150e+001,1.70559e+001,1.23150e+001,-7.31151e+001
8.22000e-001,-3.05653e-003,1.23300e+001,-8.37450e+001,1.23300e+001,1.89102e+001,1.23300e+001,-7.40266e+001
8.23000e-001,-3.52987e-003,1.23450e+001,-8.32968e+001,1.23450e+001,2.12093e+001,1.23450e+001,-7.49992e+001
8.24000e-001,-3.84140e-003,1.23600e+001,-8.30122e+001,1.23600e+001,2.26983e+001,1.23600e+001,-7.56119e+001
8.25000e-001,-3.95352e-003,1.23750e+001,-8.27287e+001,1.23750e+001,2.40610e+001,1.23750e+001,-7.62296e+001
8.26000e-001,-3.94009e-003,1.23900e+001,-8.23661e+001,1.23900e+001,2.56167e+001,1.23900e+001,-7.71371e+001
8.27000e-001,-3.84140e-003,1.24050e+001,-8.20730e+001,1.24050e+001,2.67215e+001,1.24050e+001,-7.78729e+001
8.28000e-001,-3.69000e-003,1.24200e+001,-8.17265e+001,1.24200e+001,2.80738e+001,1.24200e+001,-7.89101e+001
8.29000e-001,-3.48791e-003,1.24350e+001,-8.14779e+001,1.24350e+001,2.89878e+001,1.24350e+001,-7.96343e+001
8.30000e-001,-3.19887e-003,1.24500e+001,-8.10806e+001,1.24500e+001,3.00907e+001,1.24500e+001,-8.04279e+001
8.31000e-001,-2.91823e-003,1.24650e+001,-8.06970e+001,1.24650e+001,3.10346e+001,1.24650e+001,-8.09481e+001
8.32000e-001,-2.64900e-003,1.24800e+001,-8.02707e+001,1.24800e+001,3.20572e+001,1.24800e+001,-8.14379e+001
8.33000e-001,-2.43616e-003,1.24950e+001,-7.97211e+001,1.24950e+001,3.33412e+001,1.24950e+001,-8.22444e+001
8.34000e-001,-2.23004e-003,1.25100e+001,-7.94258e+001,1.25100e+001,3.42444e+001,1.25100e+001,-8.29643e+001
8.35000e-001,-2.01453e-003,1.25250e+001,-7.90596e+001,1.25250e+001,3.53574e+001,1.25250e+001,-8.38071e+001
8.36000e-001,-1.80270e-003,1.25400e+001,-7.87692e+001,1.25400e+001,3.60764e+001,1.25400e+001,-8.43864e+001
8.37000e-001,-1.66339e-003,1.25550e+001,-7.84915e+001,1.25550e+001,3.66483e+001,1.25550e+001,-8.49754e+001
8.38000e-001,-1.55328e-003,1.25700e+001,-7.81889e+001,1.25700e+001,3.72448e+001,1.25700e+001,-8.57962e+001
8.39000e-001,-1.42907e-003,1.25850e+001,-7.80396e+001,1.25850e+001,3.75880e+001,1.25850e+001,-8.64770e+001
8.40000e-001,-1.35286e-003,1.26000e+001,-7.79234e+001,1.26000e+001,3.80039e+001,1.26000e+001,-8.74128e+001
8.41000e-001,-1.30385e-003,1.26150e+001,-7.79302e+001,1.26150e+001,3.82496e+001,1.26150e+001,-8.81904e+001
8.42000e-001,-1.28942e-003,1.26300e+001,-7.79903e+001,1.26300e+001,3.85667e+001,1.26300e+001,-8.91674e+001
8.43000e-001,-1.25316e-003,1.26450e+001,-7.79918e+001,1.26450e+001,3.87887e+001,1.26450e+001,-8.97666e+001
8.44000e-001,-1.18401e-003,1.26600e+001,-7.79672e+001,1.26600e+001,3.89845e+001,1.26600e+001,-9.03362e+001
8.45000e-001,-1.14473e-003,1.26750e+001,-7.78765e+001,1.26750e+001,3.92065e+001,1.26750e+001,-9.10658e+001
8.46000e-001,-1.14574e-003,1.26900e+001,-7.77686e+001,1.26900e+001,3.93304e+001,1.26900e+001,-9.15973e+001
8.47000e-001,-1.10747e-003,1.27050e+001,-7.75657e+001,1.27050e+001,3.94472e+001,1.27050e+001,-9.22243e+001
8.48000e-001,-1.07994e-003,1.27200e+001,-7.73626e+001,1.27200e+001,3.94965e+001,1.27200e+001,-9.25859e+001
8.49000e-001,-1.09303e-003,1.27350e+001,-7.70502e+001,1.27350e+001,3.95369e+001,1.27350e+001,-9.27973e+001
8.50000e-001,-1.07994e-003,1.27500e+001,-7.66877e+001,1.27500e+001,3.95727e+001,1.27500e+001,-9.30845e+001
8.51000e-001,-1.07994e-003,1.27650e+001,-7.64349e+001,1.27650e+001,3.96429e+001,1.27650e+001,-9.32431e+001
8.52000e-001,-1.10646e-003,1.27800e+001,-7.61405e+001,1.27800e+001,3.98158e+001,1.27800e+001,-9.33863e+001
8.53000e-001,-1.10008e-003,1.27950e+001,-7.60034e+001,1.27950e+001,4.00019e+001,1.27950e+001,-9.35368e+001
8.54000e-001,-1.04436e-003,1.28100e+001,-7.59200e+001,1.28100e+001,4.01728e+001,1.28100e+001,-9.36831e+001
8.55000e-001,-1.05443e-003,1.28250e+001,-7.59488e+001,1.28250e+001,4.01752e+001,1.28250e+001,-9.37712e+001
8.56000e-001,-1.03160e-003,1.28400e+001,-7.59819e+001,1.28400e+001,4.00692e+001,1.28400e+001,-9.37768e+001
8.57000e-001,-1.01381e-003,1.28550e+001,-7.60229e+001,1.28550e+001,3.98192e+001,1.28550e+001,-9.37840e+001
8.58000e-001,-9.33577e-004,1.28700e+001,-7.60632e+001,1.28700e+001,3.96029e+001,1.28700e+001,-9.38247e+001
8.59000e-001,-8.50996e-004,1.28850e+001,-7.62139e+001,1.28850e+001,3.93619e+001,1.28850e+001,-9.39578e+001
8.60000e-001,-8.11383e-004,1.29000e+001,-7.63863e+001,1.29000e+001,3.92056e+001,1.29000e+001,-9.40717e+001
8.61000e-001,-8.24811e-004,1.29150e+001,-7.65938e+001,1.29150e+001,3.90312e+001,1.29150e+001,-9.41603e+001
8.62000e-001,-7.93927e-004,1.29300e+001,-7.68645e+001,1.29300e+001,3.87685e+001,1.29300e+001,-9.42062e+001
8.63000e-001,-7.53643e-004,1.29450e+001,-7.70237e+001,1.29450e+001,3.85880e+001,1.29450e+001,-9.41557e+001
8.64000e-001,-7.77813e-004,1.29600e+001,-7.72065e+001,1.29600e+001,3.84390e+001,1.29600e+001,-9.41233e+001
8.65000e-001,-7.90570e-004,1.29750e+001,-7.73606e+001,1.29750e+001,3.83791e+001,1.29750e+001,-9.41542e+001
8.66000e-001,-7.80499e-004,1.29900e+001,-7.75378e+001,1.29900e+001,3.83392e+001,1.29900e+001,-9.41757e+001
8.67000e-001,-7.03960e-004,1.30050e+001,-7.77338e+001,1.30050e+001,3.83160e+001,1.30050e+001,-9.41534e+001
8.68000e-001,-6.13321e-004,1.30200e+001,-7.78556e+001,1.30200e+001,3.82798e+001,1.30200e+001,-9.40618e+001
8.69000e-001,-5.11604e-004,1.30350e+001,-7.79625e+001,1.30350e+001,3.81815e+001,1.30350e+001,-9.38391e+001
8.70000e-001,-4.77028e-004,1.30500e+001,-7.80040e+001,1.30500e+001,3.80892e+001,1.30500e+001,-9.36182e+001
8.71000e-001,-4.25330e-004,1.30650e+001,-7.79851e+001,1.30650e+001,3.80041e+001,1.30650e+001,-9.32237e+001
8.72000e-001,-3.52148e-004,1.30800e+001,-7.79335e+001,1.30800e+001,3.79713e+001,1.30800e+001,-9.29003e+001
8.73000e-001,-3.28985e-004,1.30950e+001,-7.78521e+001,1.30950e+001,3.79478e+001,1.30950e+001,-9.25815e+001
8.74000e-001,-2.91722e-004,1.31100e+001,-7.77069e+001,1.31100e+001,3.79339e+001,1.31100e+001,-9.20971e+001
8.75000e-001,-2.63523e-004,1.31250e+001,-7.75289e+001,1.31250e+001,3.78867e+001,1.31250e+001,-9.16672e+001
8.76000e-001,-2.40696e-004,1.31400e+001,-7.72144e+001,1.31400e+001,3.77610e+001,1.31400e+001,-9.09479e+001
8.77000e-001,-2.25254e-004,1.31550e+001,-7.69246e+001,1.31550e+001,3.76024e+001,1.31550e+001,-9.03907e+001
8.78000e-001,-1.60128e-004,1.31700e+001,-7.66589e+001,1.31700e+001,3.74109e+001,1.31700e+001,-8.98485e+001
8.79000e-001,-1.61471e-004,1.31850e+001,-7.62794e+001,1.31850e+001,3.70755e+001,1.31850e+001,-8.90405e+001
8.80000e-001,-1.50729e-004,1.32000e+001,-7.59533e+001,1.32000e+001,3.67439e+001,1.32000e+001,-8.84155e+001
8.81000e-001,-1.02388e-004,1.32150e+001,-7.54620e+001,1.32150e+001,3.61670e+001,1.32150e+001,-8.75341e+001
8.82000e-001,-9.97024e-005,1.32300e+001,-7.51441e+001,1.32300e+001,3.55819e+001,1.32300e+001,-8.68830e+001
8.83000e-001,-9.50027e-005,1.32450e+001,-7.48841e+001,1.32450e+001,3.44482e+001,1.32450e+001,-8.60114e+001
8.84000e-001,-9.90311e-005,1.32600e+001,-7.47327e+001,1.32600e+001,3.35538e+001,1.32600e+001,-8.53750e+001
8.85000e-001,-1.00038e-004,1.32750e+001,-7.45659e+001,1.32750e+001,3.27381e+001,1.32750e+001,-8.47850e+001
8.86000e-001,-1.68856e-004,1.32900e+001,-7.43033e+001,1.32900e+001,3.17302e+001,1.32900e+001,-8.39841e+001
8.87000e-001,-1.87655e-004,1.33050e+001,-7.40763e+001,1.33050e+001,3.09480e+001,1.33050e+001,-8.34101e+001
8.88000e-001,-2.06790e-004,1.33200e+001,-7.37375e+001,1.33200e+001,2.99261e+001,1.33200e+001,-8.25398e+001
8.89000e-001,-2.14176e-004,1.33350e+001,-7.34585e+001,1.33350e+001,2.91703e+001,1.33350e+001,-8.18857e+001
8.90000e-001,-2.11490e-004,1.33500e+001,-7.31740e+001,1.33500e+001,2.83729e+001,1.33500e+001,-8.12836e+001
8.91000e-001,-2.45060e-004,1.33650e+001,-7.29088e+001,1.33650e+001,2.73666e+001,1.33650e+001,-8.04924e+001
8.92000e-001,-2.44053e-004,1.33800e+001,-7.27053e+001,1.33800e+001,2.65532e+001,1.33800e+001,-7.98611e+001
8.93000e-001,-2.23239e-004,1.33950e+001,-7.24466e+001,1.33950e+001,2.53682e+001,1.33950e+001,-7.89504e+001
8.94000e-001,-1.88327e-004,1.34100e+001,-7.23061e+001,1.34100e+001,2.44036e+001,1.34100e+001,-7.82777e+001
8.95000e-001,-1.51400e-004,1.34250e+001,-7.21624e+001,1.34250e+001,2.34026e+001,1.34250e+001,-7.76856e+001
8.96000e-001,-1.09438e-004,1.34400e+001,-7.19550e+001,1.34400e+001,2.21453e+001,1.34400e+001,-7.69849e+001
8.97000e-001,-7.15038e-005,1.34550e+001,-7.18265e+001,1.34550e+001,2.12642e+001,1.34550e+001,-7.65054e+001
8.98000e-001,-2.34989e-005,1.34700e+001,-7.17605e+001,1.34700e+001,2.02613e+001,1.34700e+001,-7.58791e+001
8.99000e-001,-2.45060e-005,1.34850e+001,-7.17246e+001,1.34850e+001,1.95891e+001,1.34850e+001,-7.53935e+001
9.00000e-001,-1.37636e-005,1.35000e+001,-7.17464e+001,1.35000e+001,1.87692e+001,1.35000e+001,-7.48266e+001
9.01000e-001,-2.71916e-005,1.35150e+001,-7.18105e+001,1.35150e+001,1.81832e+001,1.35150e+001,-7.44200e+001
9.02000e-001,-6.71397e-007,1.35300e+001,-7.18825e+001,1.35300e+001,1.76409e+001,1.35300e+001,-7.40636e+001
9.03000e-001,2.45060e-005,1.35450e+001,-7.20313e+001,1.35450e+001,1.69870e+001,1.35450e+001,-7.36027e+001
9.04000e-001,5.94186e-005,1.35600e+001,-7.21534e+001,1.35600e+001,1.65465e+001,1.35600e+001,-7.31614e+001
9.05000e-001,8.15747e-005,1.35750e+001,-7.22614e+001,1.35750e+001,1.58976e+001,1.35750e+001,-7.26483e+001
9.06000e-001,9.97024e-005,1.35900e+001,-7.23596e+001,1.35900e+001,1.54260e+001,1.35900e+001,-7.23344e+001
9.07000e-001,9.90311e-005,1.36050e+001,-7.25036e+001,1.36050e+001,1.50509e+001,1.36050e+001,-7.19995e+001
9.08000e-001,1.09102e-004,1.36200e+001,-7.26928e+001,1.36200e+001,1.46458e+001,1.36200e+001,-7.15479e+001
9.09000e-001,1.06416e-004,1.36350e+001,-7.28067e+001,1.36350e+001,1.43757e+001,1.36350e+001,-7.12241e+001
9.10000e-001,9.73526e-005,1.36500e+001,-7.29206e+001,1.36500e+001,1.40445e+001,1.36500e+001,-7.08127e+001
9.11000e-001,8.69459e-005,1.36650e+001,-7.29817e+001,1.36650e+001,1.37602e+001,1.36650e+001,-7.05623e+001
9.12000e-001,6.41184e-005,1.36800e+001,-7.30519e+001,1.36800e+001,1.33970e+001,1.36800e+001,-7.02830e+001
9.13000e-001,9.63455e-005,1.36950e+001,-7.31159e+001,1.36950e+001,1.31816e+001,1.36950e+001,-7.01157e+001
9.14000e-001,1.37972e-004,1.37100e+001,-7.31745e+001,1.37100e+001,1.30191e+001,1.37100e+001,-6.99845e+001
9.15000e-001,1.30587e-004,1.37250e+001,-7.32354e+001,1.37250e+001,1.28109e+001,1.37250e+001,-6.98735e+001
9.16000e-001,8.62745e-005,1.37400e+001,-7.32590e+001,1.37400e+001,1.26539e+001,1.37400e+001,-6.98034e+001
9.17000e-001,4.53193e-005,1.37550e+001,-7.32878e+001,1.37550e+001,1.24602e+001,1.37550e+001,-6.97022e+001
9.18000e-001,2.65202e-005,1.37700e+001,-7.32997e+001,1.37700e+001,1.23465e+001,1.37700e+001,-6.96080e+001
9.19000e-001,2.65202e-005,1.37850e+001,-7.33098e+001,1.37850e+001,1.22460e+001,1.37850e+001,-6.94923e+001
9.20000e-001,3.05486e-005,1.38000e+001,-7.32895e+001,1.38000e+001,1.21553e+001,1.38000e+001,-6.93858e+001
9.21000e-001,3.52483e-005,1.38150e+001,-7.32387e+001,1.38150e+001,1.21221e+001,1.38150e+001,-6.93626e+001
9.22000e-001,4.59907e-005,1.38300e+001,-7.31336e+001,1.38300e+001,1.21456e+001,1.38300e+001,-6.93568e+001
9.23000e-001,7.41894e-005,1.38450e+001,-7.30397e+001,1.38450e+001,1.21974e+001,1.38450e+001,-6.93319e+001
9.24000e-001,9.36599e-005,1.38600e+001,-7.29494e+001,1.38600e+001,1.22885e+001,1.38600e+001,-6.93425e+001
9.25000e-001,1.02388e-004,1.38750e+001,-7.29042e+001,1.38750e+001,1.24148e+001,1.38750e+001,-6.95399e+001
9.26000e-001,1.06752e-004,1.38900e+001,-7.29474e+001,1.38900e+001,1.25300e+001,1.38900e+001,-6.97912e+001
9.27000e-001,1.38979e-004,1.39050e+001,-7.31083e+001,1.39050e+001,1.28312e+001,1.39050e+001,-7.02859e+001
9.28000e-001,1.56100e-004,1.39200e+001,-7.33244e+001,1.39200e+001,1.32018e+001,1.39200e+001,-7.07559e+001
9.29000e-001,1.74899e-004,1.39350e+001,-7.37457e+001,1.39350e+001,1.38736e+001,1.39350e+001,-7.15214e+001
9.30000e-001,1.70199e-004,1.39500e+001,-7.41366e+001,1.39500e+001,1.45151e+001,1.39500e+001,-7.22341e+001
9.31000e-001,1.59457e-004,1.39650e+001,-7.45802e+001,1.39650e+001,1.52925e+001,1.39650e+001,-7.30655e+001
9.32000e-001,1.64828e-004,1.39800e+001,-7.51233e+001,1.39800e+001,1.66767e+001,1.39800e+001,-7.42890e+001
9.33000e-001,1.93027e-004,1.39950e+001,-7.54835e+001,1.39950e+001,1.79432e+001,1.39950e+001,-7.53153e+001
9.34000e-001,1.90005e-004,1.40100e+001,-7.59412e+001,1.40100e+001,1.98520e+001,1.40100e+001,-7.67018e+001
9.35000e-001,1.74899e-004,1.40250e+001,-7.63395e+001,1.40250e+001,2.12921e+001,1.40250e+001,-7.77194e+001
9.36000e-001,2.38682e-004,1.40400e+001,-7.67855e+001,1.40400e+001,2.26942e+001,1.40400e+001,-7.88884e+001
9.37000e-001,3.14549e-004,1.40550e+001,-7.75112e+001,1.40550e+001,2.46348e+001,1.40550e+001,-8.04201e+001
9.38000e-001,3.15557e-004,1.40700e+001,-7.80369e+001,1.40700e+001,2.60762e+001,1.40700e+001,-8.14906e+001
9.39000e-001,2.68223e-004,1.40850e+001,-7.84392e+001,1.40850e+001,2.76674e+001,1.40850e+001,-8.25482e+001
9.40000e-001,1.98398e-004,1.41000e+001,-7.85903e+001,1.41000e+001,2.87861e+001,1.41000e+001,-8.32778e+001
9.41000e-001,1.19844e-004,1.41150e+001,-7.88850e+001,1.41150e+001,3.04598e+001,1.41150e+001,-8.45850e+001
9.42000e-001,3.89410e-005,1.41300e+001,-7.93727e+001,1.41300e+001,3.19343e+001,1.41300e+001,-8.58250e+001
9.43000e-001,-3.12200e-005,1.41450e+001,-7.99456e+001,1.41450e+001,3.35509e+001,1.41450e+001,-8.72362e+001
9.44000e-001,-6.84825e-005,1.41600e+001,-8.05210e+001,1.41600e+001,3.53170e+001,1.41600e+001,-8.85014e+001
9.45000e-001,-9.36599e-005,1.41750e+001,-8.06206e+001,1.41750e+001,3.63964e+001,1.41750e+001,-8.90585e+001
9.46000e-001,-9.90311e-005,1.41900e+001,-8.04292e+001,1.41900e+001,3.75990e+001,1.41900e+001,-8.96501e+001
9.47000e-001,-1.16487e-004,1.42050e+001,-8.02205e+001,1.42050e+001,3.83976e+001,1.42050e+001,-9.01965e+001
9.48000e-001,-1.03059e-004,1.42200e+001,-8.02626e+001,1.42200e+001,3.93125e+001,1.42200e+001,-9.09504e+001
9.49000e-001,-1.09102e-004,1.42350e+001,-8.05255e+001,1.42350e+001,4.05547e+001,1.42350e+001,-9.20455e+001
9.50000e-001,-7.85534e-005,1.42500e+001,-8.07856e+001,1.42500e+001,4.12973e+001,1.42500e+001,-9.30238e+001
9.51000e-001,-1.15145e-004,1.42650e+001,-8.10488e+001,1.42650e+001,4.21548e+001,1.42650e+001,-9.39842e+001
9.52000e-001,-1.45357e-004,1.42800e+001,-8.10723e+001,1.42800e+001,4.27107e+001,1.42800e+001,-9.45138e+001
9.53000e-001,-1.04402e-004,1.42950e+001,-8.10081e+001,1.42950e+001,4.32695e+001,1.42950e+001,-9.50267e+001
9.54000e-001,-1.21187e-004,1.43100e+001,-8.08208e+001,1.43100e+001,4.40606e+001,1.43100e+001,-9.57290e+001
9.55000e-001,-1.07759e-004,1.43250e+001,-8.07237e+001,1.43250e+001,4.46582e+001,1.43250e+001,-9.63205e+001
9.56000e-001,-1.31258e-004,1.43400e+001,-8.07406e+001,1.43400e+001,4.53371e+001,1.43400e+001,-9.72114e+001
9.57000e-001,-1.14809e-004,1.43550e+001,-8.08496e+001,1.43550e+001,4.57701e+001,1.43550e+001,-9.79617e+001
9.58000e-001,-9.26528e-005,1.43700e+001,-8.11449e+001,1.43700e+001,4.62613e+001,1.43700e+001,-9.91673e+001
9.59000e-001,-1.07088e-004,1.43850e+001,-8.14332e+001,1.43850e+001,4.66058e+001,1.43850e+001,-1.00123e+002
9.60000e-001,-1.08766e-004,1.44000e+001,-8.17032e+001,1.44000e+001,4.69015e+001,1.44000e+001,-1.01032e+002
9.61000e-001,-1.26223e-004,1.44150e+001,-8.19547e+001,1.44150e+001,4.72181e+001,1.44150e+001,-1.02107e+002
9.62000e-001,-1.01717e-004,1.44300e+001,-8.20893e+001,1.44300e+001,4.73841e+001,1.44300e+001,-1.02796e+002
9.63000e-001,-8.42603e-005,1.44450e+001,-8.22664e+001,1.44450e+001,4.74992e+001,1.44450e+001,-1.03560e+002
9.64000e-001,-5.90829e-005,1.44600e+001,-8.23868e+001,1.44600e+001,4.75297e+001,1.44600e+001,-1.04084e+002
9.65000e-001,-7.95605e-005,1.44750e+001,-8.25052e+001,1.44750e+001,4.75309e+001,1.44750e+001,-1.04571e+002
9.66000e-001,-8.49317e-005,1.44900e+001,-8.27065e+001,1.44900e+001,4.75242e+001,1.44900e+001,-1.05193e+002
9.67000e-001,-6.07614e-005,1.45050e+001,-8.28675e+001,1.45050e+001,4.75097e+001,1.45050e+001,-1.05622e+002
9.68000e-001,-2.51774e-005,1.45200e+001,-8.30687e+001,1.45200e+001,4.74915e+001,1.45200e+001,-1.06136e+002
9.69000e-001,-5.80758e-005,1.45350e+001,-8.32156e+001,1.45350e+001,4.74672e+001,1.45350e+001,-1.06433e+002
9.70000e-001,-8.09033e-005,1.45500e+001,-8.34275e+001,1.45500e+001,4.74280e+001,1.45500e+001,-1.06797e+002
9.71000e-001,-7.72107e-005,1.45650e+001,-8.36419e+001,1.45650e+001,4.74022e+001,1.45650e+001,-1.07059e+002
9.72000e-001,-7.31823e-005,1.45800e+001,-8.38841e+001,1.45800e+001,4.73598e+001,1.45800e+001,-1.07272e+002
9.73000e-001,-7.55322e-005,1.45950e+001,-8.41410e+001,1.45950e+001,4.72986e+001,1.45950e+001,-1.07382e+002
9.74000e-001,-8.89601e-005,1.46100e+001,-8.43007e+001,1.46100e+001,4.72874e+001,1.46100e+001,-1.07449e+002
9.75000e-001,-5.80758e-005,1.46250e+001,-8.44720e+001,1.46250e+001,4.72498e+001,1.46250e+001,-1.07466e+002
9.76000e-001,-6.34470e-005,1.46400e+001,-8.45791e+001,1.46400e+001,4.72029e+001,1.46400e+001,-1.07395e+002
9.77000e-001,-3.28984e-005,1.46550e+001,-8.46679e+001,1.46550e+001,4.71678e+001,1.46550e+001,-1.07299e+002
9.78000e-001,-2.51774e-005,1.46700e+001,-8.47847e+001,1.46700e+001,4.70878e+001,1.46700e+001,-1.07136e+002
9.79000e-001,-2.92058e-005,1.46850e+001,-8.48570e+001,1.46850e+001,4.70006e+001,1.46850e+001,-1.06975e+002
9.80000e-001,-4.36408e-006,1.47000e+001,-8.49743e+001,1.47000e+001,4.68416e+001,1.47000e+001,-1.06709e+002
9.81000e-001,7.72107e-006,1.47150e+001,-8.50257e+001,1.47150e+001,4.67147e+001,1.47150e+001,-1.06413e+002
9.82000e-001,1.77920e-005,1.47300e+001,-8.48921e+001,1.47300e+001,4.65185e+001,1.47300e+001,-1.05846e+002
9.83000e-001,1.27565e-005,1.47450e+001,-8.47042e+001,1.47450e+001,4.63447e+001,1.47450e+001,-1.05383e+002
9.84000e-001,3.18914e-005,1.47600e+001,-8.45236e+001,1.47600e+001,4.61331e+001,1.47600e+001,-1.04913e+002
9.85000e-001,3.25628e-005,1.47750e+001,-8.41940e+001,1.47750e+001,4.58783e+001,1.47750e+001,-1.04178e+002
9.86000e-001,5.20333e-005,1.47900e+001,-8.37931e+001,1.47900e+001,4.56152e+001,1.47900e+001,-1.03447e+002
9.87000e-001,3.99481e-005,1.48050e+001,-8.28804e+001,1.48050e+001,4.51083e+001,1.48050e+001,-1.02081e+002
9.88000e-001,5.60616e-005,1.48200e+001,-8.18660e+001,1.48200e+001,4.47000e+001,1.48200e+001,-1.00689e+002
9.89000e-001,5.80758e-005,1.48350e+001,-8.05581e+001,1.48350e+001,4.42415e+001,1.48350e+001,-9.90141e+001
9.90000e-001,1.31258e-004,1.48500e+001,-7.85396e+001,1.48500e+001,4.33728e+001,1.48500e+001,-9.65253e+001
9.91000e-001,1.87320e-004,1.48650e+001,-7.69818e+001,1.48650e+001,4.26397e+001,1.48650e+001,-9.47714e+001
9.92000e-001,1.68856e-004,1.48800e+001,-7.50983e+001,1.48800e+001,4.17304e+001,1.48800e+001,-9.28617e+001
9.93000e-001,1.60128e-004,1.48950e+001,-7.37821e+001,1.48950e+001,4.11301e+001,1.48950e+001,-9.16468e+001
9.94000e-001,1.48379e-004,1.49100e+001,-7.25865e+001,1.49100e+001,4.04096e+001,1.49100e+001,-9.05657e+001
9.95000e-001,1.10109e-004,1.49250e+001,-7.09642e+001,1.49250e+001,3.91428e+001,1.49250e+001,-8.90523e+001
9.96000e-001,3.39055e-005,1.49400e+001,-6.97386e+001,1.49400e+001,3.78594e+001,1.49400e+001,-8.78477e+001
9.97000e-001,2.01419e-006,1.49550e+001,-6.80779e+001,1.49550e+001,3.61176e+001,1.49550e+001,-8.62465e+001
9.98000e-001,-4.02838e-006,1.49700e+001,-6.67957e+001,1.49700e+001,3.51510e+001,1.49700e+001,-8.51951e+001
9.99000e-001,-1.24208e-005,1.49850e+001,-6.52548e+001,1.49850e+001,3.40439e+001,1.49850e+001,-8.41987e+001
1.00000e+000,-2.31632e-005,1.50000e+001,-6.41971e+001,1.50000e+001,3.33000e+001,1.50000e+001,-8.35463e+001
1.00100e+000,-4.63264e-005,1.50150e+001,-6.32011e+001,1.50150e+001,3.24797e+001,1.50150e+001,-8.28959e+001
1.00200e+000,-7.55322e-005,1.50300e+001,-6.19677e+001,1.50300e+001,3.11302e+001,1.50300e+001,-8.20971e+001
1.00300e+000,-8.02319e-005,1.50450e+001,-6.12608e+001,1.50450e+001,3.01087e+001,1.50450e+001,-8.16079e+001
1.00400e+000,-1.12123e-004,1.50600e+001,-6.07707e+001,1.50600e+001,2.91632e+001,1.50600e+001,-8.11445e+001
1.00500e+000,-1.42000e-004,1.50750e+001,-6.02324e+001,1.50750e+001,2.81823e+001,1.50750e+001,-8.08897e+001
1.00600e+000,-1.57443e-004,1.50900e+001,-5.98001e+001,1.50900e+001,2.77443e+001,1.50900e+001,-8.05876e+001
1.00700e+000,-1.53750e-004,1.51050e+001,-5.92418e+001,1.51050e+001,2.71679e+001,1.51050e+001,-8.02966e+001
1.00800e+000,-1.31258e-004,1.51200e+001,-5.88594e+001,1.51200e+001,2.66702e+001,1.51200e+001,-8.01257e+001
1.00900e+000,-1.28573e-004,1.51350e+001,-5.84426e+001,1.51350e+001,2.59569e+001,1.51350e+001,-7.99426e+001
1.01000e+000,-1.22530e-004,1.51500e+001,-5.82124e+001,1.51500e+001,2.53233e+001,1.51500e+001,-7.98398e+001
1.01100e+000,-9.16457e-005,1.51650e+001,-5.80210e+001,1.51650e+001,2.44155e+001,1.51650e+001,-7.97353e+001
1.01200e+000,-8.82887e-005,1.51800e+001,-5.79571e+001,1.51800e+001,2.38777e+001,1.51800e+001,-7.97606e+001
1.01300e+000,-1.11116e-004,1.51950e+001,-5.79352e+001,1.51950e+001,2.34934e+001,1.51950e+001,-7.98280e+001
1.01400e+000,-1.10445e-004,1.52100e+001,-5.80704e+001,1.52100e+001,2.30566e+001,1.52100e+001,-8.00392e+001
1.01500e+000,-8.52674e-005,1.52250e+001,-5.82786e+001,1.52250e+001,2.27660e+001,1.52250e+001,-8.02468e+001
1.01600e+000,-5.97543e-005,1.52400e+001,-5.85988e+001,1.52400e+001,2.23214e+001,1.52400e+001,-8.04634e+001
1.01700e+000,-2.78630e-005,1.52550e+001,-5.87873e+001,1.52550e+001,2.19310e+001,1.52550e+001,-8.05642e+001
1.01800e+000,-3.02129e-005,1.52700e+001,-5.89693e+001,1.52700e+001,2.15175e+001,1.52700e+001,-8.06254e+001
1.01900e+000,-4.19623e-005,1.52850e+001,-5.91778e+001,1.52850e+001,2.09404e+001,1.52850e+001,-8.07040e+001
1.02000e+000,-5.74044e-005,1.53000e+001,-5.93575e+001,1.53000e+001,2.05066e+001,1.53000e+001,-8.07601e+001
1.02100e+000,-4.63264e-005,1.53150e+001,-5.96234e+001,1.53150e+001,1.99793e+001,1.53150e+001,-8.08210e+001
1.02200e+000,-6.88182e-005,1.53300e+001,-5.98901e+001,1.53300e+001,1.95923e+001,1.53300e+001,-8.09301e+001
1.02300e+000,-5.97543e-005,1.53450e+001,-6.02129e+001,1.53450e+001,1.92261e+001,1.53450e+001,-8.10828e+001
1.02400e+000,-5.27047e-005,1.53600e+001,-6.06750e+001,1.53600e+001,1.87832e+001,1.53600e+001,-8.12918e+001
1.02500e+000,-7.55322e-005,1.53750e+001,-6.09875e+001,1.53750e+001,1.84365e+001,1.53750e+001,-8.13431e+001
1.02600e+000,-8.76173e-005,1.53900e+001,-6.13027e+001,1.53900e+001,1.79259e+001,1.53900e+001,-8.13541e+001
1.02700e+000,-9.29885e-005,1.54050e+001,-6.14694e+001,1.54050e+001,1.75440e+001,1.54050e+001,-8.13605e+001
1.02800e+000,-7.75463e-005,1.54200e+001,-6.18196e+001,1.54200e+001,1.72242e+001,1.54200e+001,-8.14071e+001
1.02900e+000,-5.47189e-005,1.54350e+001,-6.21778e+001,1.54350e+001,1.71427e+001,1.54350e+001,-8.14215e+001
1.03000e+000,-3.39055e-005,1.54500e+001,-6.26655e+001,1.54500e+001,1.72078e+001,1.54500e+001,-8.15632e+001
1.03100e+000,-4.59907e-005,1.54650e+001,-6.34933e+001,1.54650e+001,1.74583e+001,1.54650e+001,-8.17881e+001
1.03200e+000,-5.63973e-005,1.54800e+001,-6.43219e+001,1.54800e+001,1.77446e+001,1.54800e+001,-8.20937e+001
1.03300e+000,-6.34470e-005,1.54950e+001,-6.57545e+001,1.54950e+001,1.82073e+001,1.54950e+001,-8.26520e+001
1.03400e+000,-4.46479e-005,1.55100e+001,-6.70304e+001,1.55100e+001,1.85352e+001,1.55100e+001,-8.31676e+001
1.03500e+000,-4.43122e-005,1.55250e+001,-6.84500e+001,1.55250e+001,1.88428e+001,1.55250e+001,-8.37351e+001
1.03600e+000,-2.65202e-005,1.55400e+001,-7.05854e+001,1.55400e+001,1.92526e+001,1.55400e+001,-8.44397e+001
1.03700e+000,-2.11490e-005,1.55550e+001,-7.23173e+001,1.55550e+001,1.95145e+001,1.55550e+001,-8.49479e+001
1.03800e+000,-1.51064e-005,1.55700e+001,-7.47080e+001,1.55700e+001,1.97830e+001,1.55700e+001,-8.55282e+001
1.03900e+000,-1.04067e-005,1.55850e+001,-7.64909e+001,1.55850e+001,1.98157e+001,1.55850e+001,-8.58882e+001
1.04000e+000,-3.52483e-005,1.56000e+001,-7.86978e+001,1.56000e+001,1.96802e+001,1.56000e+001,-8.63238e+001
1.04100e+000,-5.70687e-005,1.56150e+001,-8.02371e+001,1.56150e+001,1.93841e+001,1.56150e+001,-8.66299e+001
1.04200e+000,-6.54612e-005,1.56300e+001,-8.16524e+001,1.56300e+001,1.89723e+001,1.56300e+001,-8.68644e+001
1.04300e+000,-5.87472e-005,1.56450e+001,-8.31546e+001,1.56450e+001,1.84077e+001,1.56450e+001,-8.68796e+001
1.04400e+000,-7.45251e-005,1.56600e+001,-8.39349e+001,1.56600e+001,1.79874e+001,1.56600e+001,-8.66817e+001
1.04500e+000,-5.13619e-005,1.56750e+001,-8.44423e+001,1.56750e+001,1.75209e+001,1.56750e+001,-8.61965e+001
1.04600e+000,-5.00191e-005,1.56900e+001,-8.45188e+001,1.56900e+001,1.71704e+001,1.56900e+001,-8.57248e+001
1.04700e+000,-5.47189e-005,1.57050e+001,-8.43990e+001,1.57050e+001,1.68160e+001,1.57050e+001,-8.52187e+001
1.04800e+000,-5.67330e-005,1.57200e+001,-8.39999e+001,1.57200e+001,1.63169e+001,1.57200e+001,-8.43533e+001
1.04900e+000,-6.88182e-005,1.57350e+001,-8.35860e+001,1.57350e+001,1.59001e+001,1.57350e+001,-8.35573e+001
1.05000e+000,-6.68040e-005,1.57500e+001,-8.30138e+001,1.57500e+001,1.53428e+001,1.57500e+001,-8.22084e+001
1.05100e+000,-6.54612e-005,1.57650e+001,-8.26023e+001,1.57650e+001,1.48131e+001,1.57650e+001,-8.11020e+001
1.05200e+000,-6.31113e-005,1.57800e+001,-8.21033e+001,1.57800e+001,1.41804e+001,1.57800e+001,-7.95231e+001
1.05300e+000,-7.51965e-005,1.57950e+001,-8.17169e+001,1.57950e+001,1.39628e+001,1.57950e+001,-7.82490e+001
1.05400e+000,-7.15038e-005,1.58100e+001,-8.13905e+001,1.58100e+001,1.39148e+001,1.58100e+001,-7.69778e+001
1.05500e+000,-5.80758e-005,1.58250e+001,-8.10947e+001,1.58250e+001,1.39764e+001,1.58250e+001,-7.54441e+001
1.05600e+000,-4.33051e-005,1.58400e+001,-8.09495e+001,1.58400e+001,1.40438e+001,1.58400e+001,-7.43307e+001
1.05700e+000,-6.94896e-005,1.58550e+001,-8.07940e+001,1.58550e+001,1.40917e+001,1.58550e+001,-7.28349e+001
1.05800e+000,-6.74754e-005,1.58700e+001,-8.06930e+001,1.58700e+001,1.40796e+001,1.58700e+001,-7.18359e+001
1.05900e+000,-6.47898e-005,1.58850e+001,-8.06752e+001,1.58850e+001,1.40502e+001,1.58850e+001,-7.11351e+001
1.06000e+000,-6.34470e-005,1.59000e+001,-8.08184e+001,1.59000e+001,1.39564e+001,1.59000e+001,-7.06189e+001
1.06100e+000,-3.25628e-005,1.59150e+001,-8.10238e+001,1.59150e+001,1.38660e+001,1.59150e+001,-7.04223e+001
1.06200e+000,-2.48417e-005,1.59300e+001,-8.13531e+001,1.59300e+001,1.36539e+001,1.59300e+001,-7.02306e+001
1.06300e+000,-2.65202e-005,1.59450e+001,-8.15565e+001,1.59450e+001,1.34113e+001,1.59450e+001,-7.00681e+001
1.06400e+000,-2.85344e-005,1.59600e+001,-8.17253e+001,1.59600e+001,1.31184e+001,1.59600e+001,-6.99089e+001
1.06500e+000,-3.05486e-005,1.59750e+001,-8.18292e+001,1.59750e+001,1.28694e+001,1.59750e+001,-6.96590e+001
1.06600e+000,-4.16266e-005,1.59900e+001,-8.18542e+001,1.59900e+001,1.27811e+001,1.59900e+001,-6.95156e+001
1.06700e+000,-4.53193e-005,1.60050e+001,-8.18712e+001,1.60050e+001,1.28339e+001,1.60050e+001,-6.94177e+001
1.06800e+000,-5.00191e-005,1.60200e+001,-8.18536e+001,1.60200e+001,1.29415e+001,1.60200e+001,-6.95070e+001
1.06900e+000,-4.86763e-005,1.60350e+001,-8.18160e+001,1.60350e+001,1.31772e+001,1.60350e+001,-6.97756e+001
1.07000e+000,-7.88891e-005,1.60500e+001,-8.17378e+001,1.60500e+001,1.33852e+001,1.60500e+001,-7.01192e+001
1.07100e+000,-9.83597e-005,1.60650e+001,-8.16807e+001,1.60650e+001,1.36011e+001,1.60650e+001,-7.05518e+001
1.07200e+000,-1.13130e-004,1.60800e+001,-8.15526e+001,1.60800e+001,1.39994e+001,1.60800e+001,-7.11576e+001
1.07300e+000,-1.16823e-004,1.60950e+001,-8.14299e+001,1.60950e+001,1.43993e+001,1.60950e+001,-7.16443e+001
1.07400e+000,-1.03395e-004,1.61100e+001,-8.12712e+001,1.61100e+001,1.50376e+001,1.61100e+001,-7.23843e+001
1.07500e+000,-1.05745e-004,1.61250e+001,-8.11740e+001,1.61250e+001,1.56144e+001,1.61250e+001,-7.30163e+001
1.07600e+000,-8.49317e-005,1.61400e+001,-8.10896e+001,1.61400e+001,1.62922e+001,1.61400e+001,-7.37536e+001
1.07700e+000,-4.86763e-005,1.61550e+001,-8.09786e+001,1.61550e+001,1.73869e+001,1.61550e+001,-7.48524e+001
1.07800e+000,-2.18204e-005,1.61700e+001,-8.08718e+001,1.61700e+001,1.84280e+001,1.61700e+001,-7.58233e+001
1.07900e+000,-3.35698e-005,1.61850e+001,-8.07507e+001,1.61850e+001,1.96621e+001,1.61850e+001,-7.68301e+001
1.08000e+000,-5.00191e-005,1.62000e+001,-8.05099e+001,1.62000e+001,2.15480e+001,1.62000e+001,-7.80527e+001
1.08100e+000,-5.06905e-005,1.62150e+001,-7.99528e+001,1.62150e+001,2.35163e+001,1.62150e+001,-7.88814e+001
1.08200e+000,-4.53193e-005,1.62300e+001,-7.93634e+001,1.62300e+001,2.49650e+001,1.62300e+001,-7.92878e+001
1.08300e+000,-4.19623e-005,1.62450e+001,-7.88269e+001,1.62450e+001,2.63737e+001,1.62450e+001,-7.96189e+001
1.08400e+000,-5.06905e-005,1.62600e+001,-7.83069e+001,1.62600e+001,2.81845e+001,1.62600e+001,-8.02278e+001
1.08500e+000,-2.24918e-005,1.62750e+001,-7.81695e+001,1.62750e+001,2.95632e+001,1.62750e+001,-8.10706e+001
1.08600e+000,-1.04067e-005,1.62900e+001,-7.81987e+001,1.62900e+001,3.15781e+001,1.62900e+001,-8.26038e+001
1.08700e+000,4.36408e-006,1.63050e+001,-7.81805e+001,1.63050e+001,3.31428e+001,1.63050e+001,-8.38129e+001
1.08800e+000,-2.51774e-005,1.63200e+001,-7.81600e+001,1.63200e+001,3.42360e+001,1.63200e+001,-8.45702e+001
1.08900e+000,-3.39055e-005,1.63350e+001,-7.80880e+001,1.63350e+001,3.54058e+001,1.63350e+001,-8.55555e+001
1.09000e+000,-4.46479e-005,1.63500e+001,-7.79339e+001,1.63500e+001,3.63171e+001,1.63500e+001,-8.62593e+001
1.09100e+000,-2.48417e-005,1.63650e+001,-7.77080e+001,1.63650e+001,3.76445e+001,1.63650e+001,-8.72629e+001
1.09200e+000,-3.65911e-005,1.63800e+001,-7.75442e+001,1.63800e+001,3.87460e+001,1.63800e+001,-8.80128e+001
1.09300e+000,-4.22980e-005,1.63950e+001,-7.73275e+001,1.63950e+001,3.97803e+001,1.63950e+001,-8.87039e+001
1.09400e+000,-5.03548e-005,1.64100e+001,-7.69801e+001,1.64100e+001,4.10344e+001,1.64100e+001,-8.95183e+001
1.09500e+000,-6.78111e-005,1.64250e+001,-7.66479e+001,1.64250e+001,4.19017e+001,1.64250e+001,-9.00454e+001
1.09600e+000,-6.94896e-005,1.64400e+001,-7.62211e+001,1.64400e+001,4.29051e+001,1.64400e+001,-9.07570e+001
1.09700e+000,-1.16487e-004,1.64550e+001,-7.60450e+001,1.64550e+001,4.35390e+001,1.64550e+001,-9.14612e+001
1.09800e+000,-1.52743e-004,1.64700e+001,-7.60817e+001,1.64700e+001,4.42904e+001,1.64700e+001,-9.25876e+001
