# Label: Avanti Sensor 1: EMG 1 Sampling frequency: 1.000000e+003 Number of points: 21600 X start: 0.000000e+000 Unit: V Domain Unit: s
# Label: Avanti Sensor 1: Quat 1.W Sampling frequency: 6.666667e+001 Number of points: 1440 X start: 0.000000e+000 Unit: Orientation Domain Unit: s
# Label: Avanti Sensor 1: Quat 1.X Sampling frequency: 6.666667e+001 Number of points: 1440 X start: 0.000000e+000 Unit: Orientation Domain Unit: s
# Label: Avanti Sensor 1: Quat 1.Y Sampling frequency: 6.666667e+001 Number of points: 1440 X start: 0.000000e+000 Unit: Orientation Domain Unit: s
# Label: Avanti Sensor 1: Quat 1.Z Sampling frequency: 6.666667e+001 Number of points: 1440 X start: 0.000000e+000 Unit: Orientation Domain Unit: s
# Label: Avanti Sensor 1: Quat 1.Accuracy Sampling frequency: 6.666667e+001 Number of points: 1440 X start: 0.000000e+000 Unit: OrientationAccuracy Domain Unit: s
# Start Trigger Method: None
# Stop Trigger Method: None
# Use Camera: NO
# Video File Path: 
# System Gain: 1.500000e+002
# A/D card Gain: 1.000000e+000
# Bit Resolution: -1.000000e+000
# Bias: 0.000000e+000
# High pass cutoff frequency: 0.000000e+000
# Low pass cutoff frequency: 0.000000e+000
# System Gain: 1.000000e+000
# A/D card Gain: 1.000000e+000
# Bit Resolution: -1.000000e+000
# Bias: 0.000000e+000
# High pass cutoff frequency: 0.000000e+000
# Low pass cutoff frequency: 0.000000e+000
# System Gain: 1.000000e+000
# A/D card Gain: 1.000000e+000
# Bit Resolution: -1.000000e+000
# Bias: 0.000000e+000
# High pass cutoff frequency: 0.000000e+000
# Low pass cutoff frequency: 0.000000e+000
# System Gain: 1.000000e+000
# A/D card Gain: 1.000000e+000
# Bit Resolution: -1.000000e+000
# Bias: 0.000000e+000
# High pass cutoff frequency: 0.000000e+000
# Low pass cutoff frequency: 0.000000e+000
# System Gain: 1.000000e+000
# A/D card Gain: 1.000000e+000
# Bit Resolution: -1.000000e+000
# Bias: 0.000000e+000
# High pass cutoff frequency: 0.000000e+000
# Low pass cutoff frequency: 0.000000e+000
# System Gain: 1.000000e+000
# A/D card Gain: 1.000000e+000
# Bit Resolution: -1.000000e+000
# Bias: 0.000000e+000
# High pass cutoff frequency: 0.000000e+000
# Low pass cutoff frequency: 0.000000e+000
X [s],Avanti Sensor 1: EMG 1 [V],X [s],Avanti Sensor 1: Quat 1.W [Orientation],X [s],Avanti Sensor 1: Quat 1.X [Orientation],X [s],Avanti Sensor 1: Quat 1.Y [Orientation],X [s],Avanti Sensor 1: Quat 1.Z [Orientation],X [s],Avanti Sensor 1: Quat 1.Accuracy [OrientationAccuracy]
0.00000e+000,-6.21042e-005,0.00000e+000,7.95304e-001,0.00000e+000,3.55934e-002,0.00000e+000,3.75552e-002,0.00000e+000,6.03998e-001,0.00000e+000,3.54004e-002
1.00000e-003,-5.94186e-005,1.50000e-002,7.94879e-001,1.50000e-002,3.55345e-002,1.50000e-002,3.74236e-002,1.50000e-002,6.04568e-001,1.50000e-002,3.54004e-002
2.00000e-003,-6.34470e-005,3.00000e-002,7.94501e-001,3.00000e-002,3.54768e-002,3.00000e-002,3.72607e-002,3.00000e-002,6.05079e-001,3.00000e-002,3.54004e-002
3.00000e-003,-5.94186e-005,4.50000e-002,7.94413e-001,4.50000e-002,3.55849e-002,4.50000e-002,3.70429e-002,4.50000e-002,6.05201e-001,4.50000e-002,3.54004e-002
4.00000e-003,-6.14328e-005,6.00000e-002,7.94440e-001,6.00000e-002,3.57470e-002,6.00000e-002,3.70647e-002,6.00000e-002,6.05155e-001,6.00000e-002,3.54004e-002
5.00000e-003,-6.14328e-005,7.50000e-002,7.94418e-001,7.50000e-002,3.63392e-002,7.50000e-002,3.74558e-002,7.50000e-002,6.05125e-001,7.50000e-002,3.54004e-002
6.00000e-003,-5.94186e-005,9.00000e-002,7.94210e-001,9.00000e-002,3.69098e-002,9.00000e-002,3.78401e-002,9.00000e-002,6.05338e-001,9.00000e-002,3.54004e-002
7.00000e-003,-6.04257e-005,1.05000e-001,7.94071e-001,1.05000e-001,3.73769e-002,1.05000e-001,3.76938e-002,1.05000e-001,6.05502e-001,1.05000e-001,3.54004e-002
8.00000e-003,-5.94186e-005,1.20000e-001,7.93727e-001,1.20000e-001,3.76261e-002,1.20000e-001,3.71127e-002,1.20000e-001,6.05973e-001,1.20000e-001,3.54004e-002
9.00000e-003,-6.21042e-005,1.35000e-001,7.93508e-001,1.35000e-001,3.77528e-002,1.35000e-001,3.68020e-002,1.35000e-001,6.06270e-001,1.35000e-001,3.54004e-002
1.00000e-002,-6.51255e-005,1.50000e-001,7.93182e-001,1.50000e-001,3.78972e-002,1.50000e-001,3.62882e-002,1.50000e-001,6.06719e-001,1.50000e-001,3.54004e-002
1.10000e-002,-6.34470e-005,1.65000e-001,7.93049e-001,1.65000e-001,3.83454e-002,1.65000e-001,3.57752e-002,1.65000e-001,6.06895e-001,1.65000e-001,3.54004e-002
1.20000e-002,-6.47898e-005,1.80000e-001,7.92822e-001,1.80000e-001,3.84549e-002,1.80000e-001,3.53539e-002,1.80000e-001,6.07209e-001,1.80000e-001,3.54004e-002
1.30000e-002,-6.24399e-005,1.95000e-001,7.92795e-001,1.95000e-001,3.86850e-002,1.95000e-001,3.49640e-002,1.95000e-001,6.07253e-001,1.95000e-001,3.54004e-002
1.40000e-002,-6.07614e-005,2.10000e-001,7.92478e-001,2.10000e-001,3.86825e-002,2.10000e-001,3.48770e-002,2.10000e-001,6.07672e-001,2.10000e-001,3.54004e-002
1.50000e-002,-6.10971e-005,2.25000e-001,7.92294e-001,2.25000e-001,3.84270e-002,2.25000e-001,3.47507e-002,2.25000e-001,6.07935e-001,2.25000e-001,3.54004e-002
1.60000e-002,-5.00191e-005,2.40000e-001,7.92396e-001,2.40000e-001,3.83053e-002,2.40000e-001,3.47465e-002,2.40000e-001,6.07810e-001,2.40000e-001,3.54004e-002
1.70000e-002,-5.94186e-005,2.55000e-001,7.92595e-001,2.55000e-001,3.80856e-002,2.55000e-001,3.44967e-002,2.55000e-001,6.07579e-001,2.55000e-001,3.54004e-002
1.80000e-002,-6.34470e-005,2.70000e-001,7.92776e-001,2.70000e-001,3.80621e-002,2.70000e-001,3.41365e-002,2.70000e-001,6.07363e-001,2.70000e-001,3.54004e-002
1.90000e-002,-6.34470e-005,2.85000e-001,7.92826e-001,2.85000e-001,3.80932e-002,2.85000e-001,3.38459e-002,2.85000e-001,6.07312e-001,2.85000e-001,3.54004e-002
2.00000e-002,-5.67330e-005,3.00000e-001,7.92982e-001,3.00000e-001,3.83511e-002,3.00000e-001,3.36225e-002,3.00000e-001,6.07106e-001,3.00000e-001,3.54004e-002
2.10000e-002,-5.53903e-005,3.15000e-001,7.92913e-001,3.15000e-001,3.84689e-002,3.15000e-001,3.36690e-002,3.15000e-001,6.07185e-001,3.15000e-001,3.54004e-002
2.20000e-002,-6.17685e-005,3.30000e-001,7.92827e-001,3.30000e-001,3.83813e-002,3.30000e-001,3.37135e-002,3.30000e-001,6.07301e-001,3.30000e-001,3.54004e-002
2.30000e-002,-5.97543e-005,3.45000e-001,7.92882e-001,3.45000e-001,3.82732e-002,3.45000e-001,3.37322e-002,3.45000e-001,6.07235e-001,3.45000e-001,3.54004e-002
2.40000e-002,-5.47189e-005,3.60000e-001,7.92870e-001,3.60000e-001,3.79821e-002,3.60000e-001,3.37076e-002,3.60000e-001,6.07270e-001,3.60000e-001,3.54004e-002
2.50000e-002,-4.86763e-005,3.75000e-001,7.92951e-001,3.75000e-001,3.76152e-002,3.75000e-001,3.35738e-002,3.75000e-001,6.07194e-001,3.75000e-001,3.54004e-002
2.60000e-002,-5.60616e-005,3.90000e-001,7.93022e-001,3.90000e-001,3.72853e-002,3.90000e-001,3.32727e-002,3.90000e-001,6.07139e-001,3.90000e-001,3.54004e-002
2.70000e-002,-5.47189e-005,4.05000e-001,7.92901e-001,4.05000e-001,3.70343e-002,4.05000e-001,3.26680e-002,4.05000e-001,6.07345e-001,4.05000e-001,3.54004e-002
2.80000e-002,-5.40475e-005,4.20000e-001,7.93028e-001,4.20000e-001,3.70972e-002,4.20000e-001,3.22367e-002,4.20000e-001,6.07198e-001,4.20000e-001,3.54004e-002
2.90000e-002,-5.47189e-005,4.35000e-001,7.93260e-001,4.35000e-001,3.71402e-002,4.35000e-001,3.17943e-002,4.35000e-001,6.06916e-001,4.35000e-001,3.54004e-002
3.00000e-002,-6.27756e-005,4.50000e-001,7.93347e-001,4.50000e-001,3.71170e-002,4.50000e-001,3.13651e-002,4.50000e-001,6.06826e-001,4.50000e-001,3.54004e-002
3.10000e-002,-6.47898e-005,4.65000e-001,7.93454e-001,4.65000e-001,3.72128e-002,4.65000e-001,3.12536e-002,4.65000e-001,6.06687e-001,4.65000e-001,3.54004e-002
3.20000e-002,-5.97543e-005,4.80000e-001,7.93681e-001,4.80000e-001,3.73034e-002,4.80000e-001,3.10769e-002,4.80000e-001,6.06392e-001,4.80000e-001,3.54004e-002
3.30000e-002,-6.88182e-005,4.95000e-001,7.93784e-001,4.95000e-001,3.73808e-002,4.95000e-001,3.10329e-002,4.95000e-001,6.06256e-001,4.95000e-001,3.54004e-002
3.40000e-002,-6.41184e-005,5.10000e-001,7.93694e-001,5.10000e-001,3.73397e-002,5.10000e-001,3.09452e-002,5.10000e-001,6.06380e-001,5.10000e-001,3.54004e-002
3.50000e-002,-6.64683e-005,5.25000e-001,7.93754e-001,5.25000e-001,3.72733e-002,5.25000e-001,3.09074e-002,5.25000e-001,6.06308e-001,5.25000e-001,3.54004e-002
3.60000e-002,-6.10971e-005,5.40000e-001,7.93853e-001,5.40000e-001,3.72714e-002,5.40000e-001,3.07960e-002,5.40000e-001,6.06184e-001,5.40000e-001,3.54004e-002
3.70000e-002,-5.80758e-005,5.55000e-001,7.94007e-001,5.55000e-001,3.71580e-002,5.55000e-001,3.05483e-002,5.55000e-001,6.06001e-001,5.55000e-001,3.54004e-002
3.80000e-002,-5.40475e-005,5.70000e-001,7.93964e-001,5.70000e-001,3.70254e-002,5.70000e-001,3.04387e-002,5.70000e-001,6.06071e-001,5.70000e-001,3.54004e-002
3.90000e-002,-6.21042e-005,5.85000e-001,7.93806e-001,5.85000e-001,3.69492e-002,5.85000e-001,3.02382e-002,5.85000e-001,6.06293e-001,5.85000e-001,3.54004e-002
4.00000e-002,-6.21042e-005,6.00000e-001,7.93854e-001,6.00000e-001,3.70385e-002,6.00000e-001,3.02077e-002,6.00000e-001,6.06227e-001,6.00000e-001,3.54004e-002
4.10000e-002,-6.27756e-005,6.15000e-001,7.93898e-001,6.15000e-001,3.71219e-002,6.15000e-001,3.00778e-002,6.15000e-001,6.06170e-001,6.15000e-001,3.54004e-002
4.20000e-002,-5.40475e-005,6.30000e-001,7.93944e-001,6.30000e-001,3.72411e-002,6.30000e-001,2.98992e-002,6.30000e-001,6.06111e-001,6.30000e-001,3.54004e-002
4.30000e-002,-4.59907e-005,6.45000e-001,7.93818e-001,6.45000e-001,3.72833e-002,6.45000e-001,2.98519e-002,6.45000e-001,6.06276e-001,6.45000e-001,3.54004e-002
4.40000e-002,-5.53903e-005,6.60000e-001,7.93491e-001,6.60000e-001,3.72774e-002,6.60000e-001,2.98984e-002,6.60000e-001,6.06702e-001,6.60000e-001,3.54004e-002
4.50000e-002,-5.94186e-005,6.75000e-001,7.93356e-001,6.75000e-001,3.73531e-002,6.75000e-001,2.99730e-002,6.75000e-001,6.06870e-001,6.75000e-001,3.54004e-002
4.60000e-002,-6.21042e-005,6.90000e-001,7.93109e-001,6.90000e-001,3.74335e-002,6.90000e-001,2.99322e-002,6.90000e-001,6.07190e-001,6.90000e-001,3.54004e-002
4.70000e-002,-6.00900e-005,7.05000e-001,7.93218e-001,7.05000e-001,3.74779e-002,7.05000e-001,2.98425e-002,7.05000e-001,6.07049e-001,7.05000e-001,3.54004e-002
4.80000e-002,-6.47898e-005,7.20000e-001,7.93212e-001,7.20000e-001,3.72634e-002,7.20000e-001,2.99127e-002,7.20000e-001,6.07067e-001,7.20000e-001,3.54004e-002
4.90000e-002,-6.81468e-005,7.35000e-001,7.93436e-001,7.35000e-001,3.70723e-002,7.35000e-001,2.99417e-002,7.35000e-001,6.06784e-001,7.35000e-001,3.54004e-002
5.00000e-002,-6.91539e-005,7.50000e-001,7.93453e-001,7.50000e-001,3.69998e-002,7.50000e-001,2.99332e-002,7.50000e-001,6.06767e-001,7.50000e-001,3.54004e-002
5.10000e-002,-6.41184e-005,7.65000e-001,7.93523e-001,7.65000e-001,3.66451e-002,7.65000e-001,2.98665e-002,7.65000e-001,6.06701e-001,7.65000e-001,3.54004e-002
5.20000e-002,-6.37827e-005,7.80000e-001,7.93625e-001,7.80000e-001,3.64577e-002,7.80000e-001,2.97276e-002,7.80000e-001,6.06585e-001,7.80000e-001,3.54004e-002
5.30000e-002,-6.17685e-005,7.95000e-001,7.93846e-001,7.95000e-001,3.62783e-002,7.95000e-001,2.95190e-002,7.95000e-001,6.06317e-001,7.95000e-001,3.54004e-002
5.40000e-002,-6.00900e-005,8.10000e-001,7.94030e-001,8.10000e-001,3.66951e-002,8.10000e-001,2.92014e-002,8.10000e-001,6.06066e-001,8.10000e-001,3.54004e-002
5.50000e-002,-5.37118e-005,8.25000e-001,7.94027e-001,8.25000e-001,3.68570e-002,8.25000e-001,2.90884e-002,8.25000e-001,6.06065e-001,8.25000e-001,3.54004e-002
5.60000e-002,-6.00900e-005,8.40000e-001,7.93906e-001,8.40000e-001,3.67683e-002,8.40000e-001,2.89605e-002,8.40000e-001,6.06236e-001,8.40000e-001,3.54004e-002
5.70000e-002,-6.21042e-005,8.55000e-001,7.93988e-001,8.55000e-001,3.68194e-002,8.55000e-001,2.89795e-002,8.55000e-001,6.06124e-001,8.55000e-001,3.54004e-002
5.80000e-002,-5.13619e-005,8.70000e-001,7.93927e-001,8.70000e-001,3.70669e-002,8.70000e-001,2.90724e-002,8.70000e-001,6.06184e-001,8.70000e-001,3.54004e-002
5.90000e-002,-4.93477e-005,8.85000e-001,7.93952e-001,8.85000e-001,3.71772e-002,8.85000e-001,2.92171e-002,8.85000e-001,6.06138e-001,8.85000e-001,3.54004e-002
6.00000e-002,-4.86763e-005,9.00000e-001,7.93905e-001,9.00000e-001,3.70058e-002,9.00000e-001,2.92724e-002,9.00000e-001,6.06207e-001,9.00000e-001,3.54004e-002
6.10000e-002,-5.20333e-005,9.15000e-001,7.93974e-001,9.15000e-001,3.69927e-002,9.15000e-001,2.92494e-002,9.15000e-001,6.06119e-001,9.15000e-001,3.54004e-002
6.20000e-002,-5.00191e-005,9.30000e-001,7.94067e-001,9.30000e-001,3.72622e-002,9.30000e-001,2.92082e-002,9.30000e-001,6.05983e-001,9.30000e-001,3.54004e-002
6.30000e-002,-5.13619e-005,9.45000e-001,7.94212e-001,9.45000e-001,3.74762e-002,9.45000e-001,2.88939e-002,9.45000e-001,6.05794e-001,9.45000e-001,3.54004e-002
6.40000e-002,-5.67330e-005,9.60000e-001,7.94134e-001,9.60000e-001,3.74716e-002,9.60000e-001,2.87936e-002,9.60000e-001,6.05902e-001,9.60000e-001,3.54004e-002
6.50000e-002,-5.97543e-005,9.75000e-001,7.94022e-001,9.75000e-001,3.74457e-002,9.75000e-001,2.87861e-002,9.75000e-001,6.06050e-001,9.75000e-001,3.54004e-002
6.60000e-002,-5.43832e-005,9.90000e-001,7.94099e-001,9.90000e-001,3.73967e-002,9.90000e-001,2.87231e-002,9.90000e-001,6.05956e-001,9.90000e-001,3.54004e-002
6.70000e-002,-6.00900e-005,1.00500e+000,7.94195e-001,1.00500e+000,3.72940e-002,1.00500e+000,2.86889e-002,1.00500e+000,6.05838e-001,1.00500e+000,3.54004e-002
6.80000e-002,-5.70687e-005,1.02000e+000,7.94214e-001,1.02000e+000,3.70572e-002,1.02000e+000,2.83525e-002,1.02000e+000,6.05843e-001,1.02000e+000,3.54004e-002
6.90000e-002,-5.74044e-005,1.03500e+000,7.94242e-001,1.03500e+000,3.69368e-002,1.03500e+000,2.80234e-002,1.03500e+000,6.05829e-001,1.03500e+000,3.54004e-002
7.00000e-002,-6.54612e-005,1.05000e+000,7.94447e-001,1.05000e+000,3.66818e-002,1.05000e+000,2.77745e-002,1.05000e+000,6.05587e-001,1.05000e+000,3.54004e-002
7.10000e-002,-6.47898e-005,1.06500e+000,7.94799e-001,1.06500e+000,3.63946e-002,1.06500e+000,2.73072e-002,1.06500e+000,6.05163e-001,1.06500e+000,3.54004e-002
7.20000e-002,-6.14328e-005,1.08000e+000,7.94855e-001,1.08000e+000,3.61544e-002,1.08000e+000,2.71794e-002,1.08000e+000,6.05110e-001,1.08000e+000,3.54004e-002
7.30000e-002,-5.94186e-005,1.09500e+000,7.95014e-001,1.09500e+000,3.58472e-002,1.09500e+000,2.71615e-002,1.09500e+000,6.04920e-001,1.09500e+000,3.54004e-002
7.40000e-002,-6.37827e-005,1.11000e+000,7.95165e-001,1.11000e+000,3.57923e-002,1.11000e+000,2.72010e-002,1.11000e+000,6.04724e-001,1.11000e+000,3.54004e-002
7.50000e-002,-5.94186e-005,1.12500e+000,7.95081e-001,1.12500e+000,3.58164e-002,1.12500e+000,2.72067e-002,1.12500e+000,6.04832e-001,1.12500e+000,3.54004e-002
7.60000e-002,-6.00900e-005,1.14000e+000,7.95115e-001,1.14000e+000,3.57809e-002,1.14000e+000,2.71921e-002,1.14000e+000,6.04790e-001,1.14000e+000,3.54004e-002
7.70000e-002,-5.63973e-005,1.15500e+000,7.95128e-001,1.15500e+000,3.55244e-002,1.15500e+000,2.71595e-002,1.15500e+000,6.04790e-001,1.15500e+000,3.54004e-002
7.80000e-002,-5.67330e-005,1.17000e+000,7.95253e-001,1.17000e+000,3.51731e-002,1.17000e+000,2.70295e-002,1.17000e+000,6.04651e-001,1.17000e+000,3.54004e-002
7.90000e-002,-6.47898e-005,1.18500e+000,7.95325e-001,1.18500e+000,3.49956e-002,1.18500e+000,2.70436e-002,1.18500e+000,6.04566e-001,1.18500e+000,3.54004e-002
8.00000e-002,-6.54612e-005,1.20000e+000,7.95189e-001,1.20000e+000,3.46913e-002,1.20000e+000,2.69947e-002,1.20000e+000,6.04766e-001,1.20000e+000,3.54004e-002
8.10000e-002,-6.91539e-005,1.21500e+000,7.95137e-001,1.21500e+000,3.44185e-002,1.21500e+000,2.69147e-002,1.21500e+000,6.04853e-001,1.21500e+000,3.54004e-002
8.20000e-002,-6.68040e-005,1.23000e+000,7.95162e-001,1.23000e+000,3.41550e-002,1.23000e+000,2.67778e-002,1.23000e+000,6.04840e-001,1.23000e+000,3.54004e-002
8.30000e-002,-6.94896e-005,1.24500e+000,7.95171e-001,1.24500e+000,3.40645e-002,1.24500e+000,2.66859e-002,1.24500e+000,6.04838e-001,1.24500e+000,3.54004e-002
8.40000e-002,-5.53903e-005,1.26000e+000,7.95175e-001,1.26000e+000,3.39245e-002,1.26000e+000,2.66993e-002,1.26000e+000,6.04840e-001,1.26000e+000,3.54004e-002
8.50000e-002,-5.74044e-005,1.27500e+000,7.95102e-001,1.27500e+000,3.36184e-002,1.27500e+000,2.66946e-002,1.27500e+000,6.04953e-001,1.27500e+000,3.54004e-002
8.60000e-002,-5.74044e-005,1.29000e+000,7.95251e-001,1.29000e+000,3.33154e-002,1.29000e+000,2.67154e-002,1.29000e+000,6.04774e-001,1.29000e+000,3.54004e-002
8.70000e-002,-5.06905e-005,1.30500e+000,7.95420e-001,1.30500e+000,3.29661e-002,1.30500e+000,2.67359e-002,1.30500e+000,6.04569e-001,1.30500e+000,3.54004e-002
8.80000e-002,-5.27047e-005,1.32000e+000,7.95470e-001,1.32000e+000,3.28198e-002,1.32000e+000,2.67322e-002,1.32000e+000,6.04511e-001,1.32000e+000,3.54004e-002
8.90000e-002,-5.57259e-005,1.33500e+000,7.95406e-001,1.33500e+000,3.27082e-002,1.33500e+000,2.67187e-002,1.33500e+000,6.04602e-001,1.33500e+000,3.54004e-002
9.00000e-002,-5.16976e-005,1.35000e+000,7.95560e-001,1.35000e+000,3.27267e-002,1.35000e+000,2.66490e-002,1.35000e+000,6.04402e-001,1.35000e+000,3.54004e-002
9.10000e-002,-5.20333e-005,1.36500e+000,7.95667e-001,1.36500e+000,3.26499e-002,1.36500e+000,2.66375e-002,1.36500e+000,6.04265e-001,1.36500e+000,3.54004e-002
9.20000e-002,-5.30404e-005,1.38000e+000,7.95639e-001,1.38000e+000,3.24041e-002,1.38000e+000,2.66829e-002,1.38000e+000,6.04314e-001,1.38000e+000,3.54004e-002
9.30000e-002,-5.67330e-005,1.39500e+000,7.95505e-001,1.39500e+000,3.22661e-002,1.39500e+000,2.67864e-002,1.39500e+000,6.04493e-001,1.39500e+000,3.54004e-002
9.40000e-002,-5.06905e-005,1.41000e+000,7.95160e-001,1.41000e+000,3.22873e-002,1.41000e+000,2.68926e-002,1.41000e+000,6.04941e-001,1.41000e+000,3.54004e-002
9.50000e-002,-4.53193e-005,1.42500e+000,7.94859e-001,1.42500e+000,3.25525e-002,1.42500e+000,2.68828e-002,1.42500e+000,6.05322e-001,1.42500e+000,3.54004e-002
9.60000e-002,-4.73335e-005,1.44000e+000,7.94731e-001,1.44000e+000,3.25051e-002,1.44000e+000,2.68262e-002,1.44000e+000,6.05496e-001,1.44000e+000,3.54004e-002
9.70000e-002,-5.20333e-005,1.45500e+000,7.94564e-001,1.45500e+000,3.25176e-002,1.45500e+000,2.68247e-002,1.45500e+000,6.05714e-001,1.45500e+000,3.54004e-002
9.80000e-002,-5.80758e-005,1.47000e+000,7.94549e-001,1.47000e+000,3.25175e-002,1.47000e+000,2.68168e-002,1.47000e+000,6.05734e-001,1.47000e+000,3.54004e-002
9.90000e-002,-5.80758e-005,1.48500e+000,7.94538e-001,1.48500e+000,3.24794e-002,1.48500e+000,2.68450e-002,1.48500e+000,6.05749e-001,1.48500e+000,3.54004e-002
1.00000e-001,-5.94186e-005,1.50000e+000,7.94379e-001,1.50000e+000,3.24593e-002,1.50000e+000,2.71902e-002,1.50000e+000,6.05943e-001,1.50000e+000,3.54004e-002
1.01000e-001,-6.00900e-005,1.51500e+000,7.94077e-001,1.51500e+000,3.25062e-002,1.51500e+000,2.74938e-002,1.51500e+000,6.06324e-001,1.51500e+000,3.54004e-002
1.02000e-001,-5.97543e-005,1.53000e+000,7.93948e-001,1.53000e+000,3.26237e-002,1.53000e+000,2.77761e-002,1.53000e+000,6.06473e-001,1.53000e+000,3.54004e-002
1.03000e-001,-5.57259e-005,1.54500e+000,7.93988e-001,1.54500e+000,3.26423e-002,1.54500e+000,2.79605e-002,1.54500e+000,6.06411e-001,1.54500e+000,3.54004e-002
1.04000e-001,-5.47189e-005,1.56000e+000,7.94106e-001,1.56000e+000,3.26133e-002,1.56000e+000,2.79013e-002,1.56000e+000,6.06261e-001,1.56000e+000,3.54004e-002
1.05000e-001,-6.14328e-005,1.57500e+000,7.94365e-001,1.57500e+000,3.25632e-002,1.57500e+000,2.79386e-002,1.57500e+000,6.05922e-001,1.57500e+000,3.54004e-002
1.06000e-001,-5.94186e-005,1.59000e+000,7.94569e-001,1.59000e+000,3.25071e-002,1.59000e+000,2.79545e-002,1.59000e+000,6.05658e-001,1.59000e+000,3.54004e-002
1.07000e-001,-5.80758e-005,1.60500e+000,7.94938e-001,1.60500e+000,3.21534e-002,1.60500e+000,2.79847e-002,1.60500e+000,6.05190e-001,1.60500e+000,3.54004e-002
1.08000e-001,-5.80758e-005,1.62000e+000,7.95088e-001,1.62000e+000,3.20609e-002,1.62000e+000,2.80154e-002,1.62000e+000,6.04997e-001,1.62000e+000,3.54004e-002
1.09000e-001,-6.14328e-005,1.63500e+000,7.95154e-001,1.63500e+000,3.21626e-002,1.63500e+000,2.81858e-002,1.63500e+000,6.04896e-001,1.63500e+000,3.54004e-002
1.10000e-001,-5.97543e-005,1.65000e+000,7.95062e-001,1.65000e+000,3.23223e-002,1.65000e+000,2.84358e-002,1.65000e+000,6.04997e-001,1.65000e+000,3.54004e-002
1.11000e-001,-5.80758e-005,1.66500e+000,7.95129e-001,1.66500e+000,3.24863e-002,1.66500e+000,2.86185e-002,1.66500e+000,6.04891e-001,1.66500e+000,3.54004e-002
1.12000e-001,-5.27047e-005,1.68000e+000,7.95299e-001,1.68000e+000,3.26367e-002,1.68000e+000,2.87656e-002,1.68000e+000,6.04652e-001,1.68000e+000,3.54004e-002
1.13000e-001,-5.70687e-005,1.69500e+000,7.95307e-001,1.69500e+000,3.26775e-002,1.69500e+000,2.87320e-002,1.69500e+000,6.04642e-001,1.69500e+000,3.54004e-002
1.14000e-001,-6.27756e-005,1.71000e+000,7.95390e-001,1.71000e+000,3.26847e-002,1.71000e+000,2.86431e-002,1.71000e+000,6.04537e-001,1.71000e+000,3.54004e-002
1.15000e-001,-5.50546e-005,1.72500e+000,7.95563e-001,1.72500e+000,3.27163e-002,1.72500e+000,2.85883e-002,1.72500e+000,6.04310e-001,1.72500e+000,3.54004e-002
1.16000e-001,-6.24399e-005,1.74000e+000,7.95783e-001,1.74000e+000,3.26394e-002,1.74000e+000,2.85534e-002,1.74000e+000,6.04026e-001,1.74000e+000,3.54004e-002
1.17000e-001,-6.47898e-005,1.75500e+000,7.95606e-001,1.75500e+000,3.26873e-002,1.75500e+000,2.86017e-002,1.75500e+000,6.04254e-001,1.75500e+000,3.54004e-002
1.18000e-001,-6.47898e-005,1.77000e+000,7.95339e-001,1.77000e+000,3.27769e-002,1.77000e+000,2.87009e-002,1.77000e+000,6.04596e-001,1.77000e+000,3.54004e-002
1.19000e-001,-5.77401e-005,1.78500e+000,7.95239e-001,1.78500e+000,3.31224e-002,1.78500e+000,2.88832e-002,1.78500e+000,6.04701e-001,1.78500e+000,3.54004e-002
1.20000e-001,-5.13619e-005,1.80000e+000,7.95350e-001,1.80000e+000,3.33720e-002,1.80000e+000,2.90381e-002,1.80000e+000,6.04533e-001,1.80000e+000,3.54004e-002
1.21000e-001,-5.67330e-005,1.81500e+000,7.95277e-001,1.81500e+000,3.37603e-002,1.81500e+000,2.90683e-002,1.81500e+000,6.04606e-001,1.81500e+000,3.54004e-002
1.22000e-001,-6.04257e-005,1.83000e+000,7.95209e-001,1.83000e+000,3.41405e-002,1.83000e+000,2.91575e-002,1.83000e+000,6.04670e-001,1.83000e+000,3.54004e-002
1.23000e-001,-6.47898e-005,1.84500e+000,7.95189e-001,1.84500e+000,3.45081e-002,1.84500e+000,2.92362e-002,1.84500e+000,6.04672e-001,1.84500e+000,3.54004e-002
1.24000e-001,-6.14328e-005,1.86000e+000,7.95083e-001,1.86000e+000,3.52081e-002,1.86000e+000,2.98209e-002,1.86000e+000,6.04742e-001,1.86000e+000,3.54004e-002
1.25000e-001,-6.14328e-005,1.87500e+000,7.94812e-001,1.87500e+000,3.60076e-002,1.87500e+000,3.07253e-002,1.87500e+000,6.05006e-001,1.87500e+000,3.54004e-002
1.26000e-001,-6.34470e-005,1.89000e+000,7.94261e-001,1.89000e+000,3.74200e-002,1.89000e+000,3.16542e-002,1.89000e+000,6.05596e-001,1.89000e+000,3.54004e-002
1.27000e-001,-7.28466e-005,1.90500e+000,7.93879e-001,1.90500e+000,3.85257e-002,1.90500e+000,3.20543e-002,1.90500e+000,6.06006e-001,1.90500e+000,3.54004e-002
1.28000e-001,-7.35180e-005,1.92000e+000,7.93742e-001,1.92000e+000,3.95361e-002,1.92000e+000,3.22731e-002,1.92000e+000,6.06108e-001,1.92000e+000,3.54004e-002
1.29000e-001,-7.08324e-005,1.93500e+000,7.93750e-001,1.93500e+000,4.10208e-002,1.93500e+000,3.26253e-002,1.93500e+000,6.05981e-001,1.93500e+000,3.54004e-002
1.30000e-001,-6.37827e-005,1.95000e+000,7.93179e-001,1.95000e+000,4.22450e-002,1.95000e+000,3.29641e-002,1.95000e+000,6.06625e-001,1.95000e+000,3.54004e-002
1.31000e-001,-6.24399e-005,1.96500e+000,7.92533e-001,1.96500e+000,4.41283e-002,1.96500e+000,3.38103e-002,1.96500e+000,6.07289e-001,1.96500e+000,3.54004e-002
1.32000e-001,-6.07614e-005,1.98000e+000,7.92229e-001,1.98000e+000,4.54156e-002,1.98000e+000,3.47076e-002,1.98000e+000,6.07540e-001,1.98000e+000,3.54004e-002
1.33000e-001,-5.94186e-005,1.99500e+000,7.91593e-001,1.99500e+000,4.67824e-002,1.99500e+000,3.59096e-002,1.99500e+000,6.08195e-001,1.99500e+000,3.54004e-002
1.34000e-001,-6.21042e-005,2.01000e+000,7.91199e-001,2.01000e+000,4.78467e-002,2.01000e+000,3.65736e-002,2.01000e+000,6.08586e-001,2.01000e+000,3.54004e-002
1.35000e-001,-5.67330e-005,2.02500e+000,7.90727e-001,2.02500e+000,4.89577e-002,2.02500e+000,3.70823e-002,2.02500e+000,6.09079e-001,2.02500e+000,3.54004e-002
1.36000e-001,-6.44541e-005,2.04000e+000,7.90543e-001,2.04000e+000,5.01944e-002,2.04000e+000,3.71944e-002,2.04000e+000,6.09210e-001,2.04000e+000,3.54004e-002
1.37000e-001,-6.31113e-005,2.05500e+000,7.90736e-001,2.05500e+000,5.07554e-002,2.05500e+000,3.68437e-002,2.05500e+000,6.08935e-001,2.05500e+000,3.54004e-002
1.38000e-001,-5.87472e-005,2.07000e+000,7.91354e-001,2.07000e+000,5.14524e-002,2.07000e+000,3.54292e-002,2.07000e+000,6.08157e-001,2.07000e+000,3.54004e-002
1.39000e-001,-5.60616e-005,2.08500e+000,7.91929e-001,2.08500e+000,5.17642e-002,2.08500e+000,3.44972e-002,2.08500e+000,6.07436e-001,2.08500e+000,3.54004e-002
1.40000e-001,-5.67330e-005,2.10000e+000,7.92482e-001,2.10000e+000,5.20148e-002,2.10000e+000,3.36166e-002,2.10000e+000,6.06741e-001,2.10000e+000,3.54004e-002
1.41000e-001,-5.40475e-005,2.11500e+000,7.93207e-001,2.11500e+000,5.25219e-002,2.11500e+000,3.24286e-002,2.11500e+000,6.05815e-001,2.11500e+000,3.54004e-002
1.42000e-001,-5.77401e-005,2.13000e+000,7.93559e-001,2.13000e+000,5.30463e-002,2.13000e+000,3.14844e-002,2.13000e+000,6.05358e-001,2.13000e+000,3.54004e-002
1.43000e-001,-6.00900e-005,2.14500e+000,7.94044e-001,2.14500e+000,5.37437e-002,2.14500e+000,3.04198e-002,2.14500e+000,6.04713e-001,2.14500e+000,3.54004e-002
1.44000e-001,-5.47189e-005,2.16000e+000,7.94699e-001,2.16000e+000,5.41172e-002,2.16000e+000,2.97337e-002,2.16000e+000,6.03853e-001,2.16000e+000,3.54004e-002
1.45000e-001,-5.70687e-005,2.17500e+000,7.95166e-001,2.17500e+000,5.43471e-002,2.17500e+000,2.89975e-002,2.17500e+000,6.03253e-001,2.17500e+000,3.54004e-002
1.46000e-001,-5.13619e-005,2.19000e+000,7.95281e-001,2.19000e+000,5.40741e-002,2.19000e+000,2.87923e-002,2.19000e+000,6.03136e-001,2.19000e+000,3.54004e-002
1.47000e-001,-4.90120e-005,2.20500e+000,7.95439e-001,2.20500e+000,5.34821e-002,2.20500e+000,2.87067e-002,2.20500e+000,6.02985e-001,2.20500e+000,3.54004e-002
1.48000e-001,-5.00191e-005,2.22000e+000,7.95670e-001,2.22000e+000,5.29065e-002,2.22000e+000,2.87213e-002,2.22000e+000,6.02730e-001,2.22000e+000,3.54004e-002
1.49000e-001,-6.34470e-005,2.23500e+000,7.95762e-001,2.23500e+000,5.30346e-002,2.23500e+000,2.86780e-002,2.23500e+000,6.02600e-001,2.23500e+000,3.54004e-002
1.50000e-001,-6.37827e-005,2.25000e+000,7.95456e-001,2.25000e+000,5.35344e-002,2.25000e+000,2.85650e-002,2.25000e+000,6.02965e-001,2.25000e+000,3.54004e-002
1.51000e-001,-6.84825e-005,2.26500e+000,7.95256e-001,2.26500e+000,5.38272e-002,2.26500e+000,2.85497e-002,2.26500e+000,6.03203e-001,2.26500e+000,3.54004e-002
1.52000e-001,-6.51255e-005,2.28000e+000,7.95281e-001,2.28000e+000,5.38835e-002,2.28000e+000,2.84576e-002,2.28000e+000,6.03169e-001,2.28000e+000,3.54004e-002
1.53000e-001,-6.84825e-005,2.29500e+000,7.95174e-001,2.29500e+000,5.38143e-002,2.29500e+000,2.82483e-002,2.29500e+000,6.03327e-001,2.29500e+000,3.54004e-002
1.54000e-001,-7.28466e-005,2.31000e+000,7.95180e-001,2.31000e+000,5.37121e-002,2.31000e+000,2.79755e-002,2.31000e+000,6.03340e-001,2.31000e+000,3.54004e-002
1.55000e-001,-7.35180e-005,2.32500e+000,7.95061e-001,2.32500e+000,5.32947e-002,2.32500e+000,2.75920e-002,2.32500e+000,6.03552e-001,2.32500e+000,3.54004e-002
1.56000e-001,-7.21752e-005,2.34000e+000,7.95235e-001,2.34000e+000,5.29421e-002,2.34000e+000,2.72413e-002,2.34000e+000,6.03369e-001,2.34000e+000,3.54004e-002
1.57000e-001,-5.87472e-005,2.35500e+000,7.95600e-001,2.35500e+000,5.28700e-002,2.35500e+000,2.68014e-002,2.35500e+000,6.02914e-001,2.35500e+000,3.54004e-002
1.58000e-001,-5.84115e-005,2.37000e+000,7.95679e-001,2.37000e+000,5.25688e-002,2.37000e+000,2.62099e-002,2.37000e+000,6.02862e-001,2.37000e+000,3.54004e-002
1.59000e-001,-6.41184e-005,2.38500e+000,7.95599e-001,2.38500e+000,5.21468e-002,2.38500e+000,2.58442e-002,2.38500e+000,6.03020e-001,2.38500e+000,3.54004e-002
1.60000e-001,-6.00900e-005,2.40000e+000,7.95744e-001,2.40000e+000,5.14890e-002,2.40000e+000,2.52963e-002,2.40000e+000,6.02909e-001,2.40000e+000,3.54004e-002
1.61000e-001,-5.90829e-005,2.41500e+000,7.95942e-001,2.41500e+000,5.10562e-002,2.41500e+000,2.49194e-002,2.41500e+000,6.02700e-001,2.41500e+000,3.54004e-002
1.62000e-001,-5.60616e-005,2.43000e+000,7.95744e-001,2.43000e+000,5.06834e-002,2.43000e+000,2.43582e-002,2.43000e+000,6.03016e-001,2.43000e+000,3.54004e-002
1.63000e-001,-5.74044e-005,2.44500e+000,7.95615e-001,2.44500e+000,5.04106e-002,2.44500e+000,2.41286e-002,2.44500e+000,6.03218e-001,2.44500e+000,3.54004e-002
1.64000e-001,-5.53903e-005,2.46000e+000,7.95427e-001,2.46000e+000,4.99126e-002,2.46000e+000,2.39110e-002,2.46000e+000,6.03516e-001,2.46000e+000,3.54004e-002
1.65000e-001,-5.70687e-005,2.47500e+000,7.95808e-001,2.47500e+000,4.92836e-002,2.47500e+000,2.35075e-002,2.47500e+000,6.03081e-001,2.47500e+000,3.54004e-002
1.66000e-001,-5.63973e-005,2.49000e+000,7.95870e-001,2.49000e+000,4.88833e-002,2.49000e+000,2.32094e-002,2.49000e+000,6.03043e-001,2.49000e+000,3.54004e-002
1.67000e-001,-5.50546e-005,2.50500e+000,7.95815e-001,2.50500e+000,4.84578e-002,2.50500e+000,2.27910e-002,2.50500e+000,6.03166e-001,2.50500e+000,3.54004e-002
1.68000e-001,-5.27047e-005,2.52000e+000,7.95911e-001,2.52000e+000,4.81642e-002,2.52000e+000,2.24754e-002,2.52000e+000,6.03075e-001,2.52000e+000,3.54004e-002
1.69000e-001,-6.00900e-005,2.53500e+000,7.95984e-001,2.53500e+000,4.76680e-002,2.53500e+000,2.21796e-002,2.53500e+000,6.03029e-001,2.53500e+000,3.54004e-002
1.70000e-001,-5.53903e-005,2.55000e+000,7.96318e-001,2.55000e+000,4.70804e-002,2.55000e+000,2.17033e-002,2.55000e+000,6.02651e-001,2.55000e+000,3.54004e-002
1.71000e-001,-5.53903e-005,2.56500e+000,7.96439e-001,2.56500e+000,4.68014e-002,2.56500e+000,2.14020e-002,2.56500e+000,6.02523e-001,2.56500e+000,3.54004e-002
1.72000e-001,-5.74044e-005,2.58000e+000,7.96427e-001,2.58000e+000,4.66282e-002,2.58000e+000,2.10106e-002,2.58000e+000,6.02567e-001,2.58000e+000,3.54004e-002
1.73000e-001,-5.53903e-005,2.59500e+000,7.96614e-001,2.59500e+000,4.65919e-002,2.59500e+000,2.08463e-002,2.59500e+000,6.02329e-001,2.59500e+000,3.54004e-002
1.74000e-001,-5.50546e-005,2.61000e+000,7.96894e-001,2.61000e+000,4.64551e-002,2.61000e+000,2.06172e-002,2.61000e+000,6.01976e-001,2.61000e+000,3.54004e-002
1.75000e-001,-5.67330e-005,2.62500e+000,7.96969e-001,2.62500e+000,4.62996e-002,2.62500e+000,2.04271e-002,2.62500e+000,6.01894e-001,2.62500e+000,3.54004e-002
1.76000e-001,-6.10971e-005,2.64000e+000,7.97035e-001,2.64000e+000,4.59750e-002,2.64000e+000,2.03199e-002,2.64000e+000,6.01837e-001,2.64000e+000,3.54004e-002
1.77000e-001,-5.70687e-005,2.65500e+000,7.97311e-001,2.65500e+000,4.53959e-002,2.65500e+000,2.01595e-002,2.65500e+000,6.01519e-001,2.65500e+000,3.54004e-002
1.78000e-001,-5.16976e-005,2.67000e+000,7.97588e-001,2.67000e+000,4.47259e-002,2.67000e+000,1.99999e-002,2.67000e+000,6.01207e-001,2.67000e+000,3.54004e-002
1.79000e-001,-4.93477e-005,2.68500e+000,7.97873e-001,2.68500e+000,4.37709e-002,2.68500e+000,1.98290e-002,2.68500e+000,6.00906e-001,2.68500e+000,3.54004e-002
1.80000e-001,-5.94186e-005,2.70000e+000,7.97917e-001,2.70000e+000,4.32079e-002,2.70000e+000,1.95692e-002,2.70000e+000,6.00897e-001,2.70000e+000,3.54004e-002
1.81000e-001,-5.67330e-005,2.71500e+000,7.98047e-001,2.71500e+000,4.26733e-002,2.71500e+000,1.92676e-002,2.71500e+000,6.00772e-001,2.71500e+000,3.54004e-002
1.82000e-001,-6.00900e-005,2.73000e+000,7.98150e-001,2.73000e+000,4.18764e-002,2.73000e+000,1.87457e-002,2.73000e+000,6.00708e-001,2.73000e+000,3.54004e-002
1.83000e-001,-5.06905e-005,2.74500e+000,7.98393e-001,2.74500e+000,4.11785e-002,2.74500e+000,1.83557e-002,2.74500e+000,6.00445e-001,2.74500e+000,3.54004e-002
1.84000e-001,-5.97543e-005,2.76000e+000,7.98663e-001,2.76000e+000,4.00833e-002,2.76000e+000,1.79277e-002,2.76000e+000,6.00173e-001,2.76000e+000,3.54004e-002
1.85000e-001,-5.70687e-005,2.77500e+000,7.99045e-001,2.77500e+000,3.92194e-002,2.77500e+000,1.75659e-002,2.77500e+000,5.99732e-001,2.77500e+000,3.54004e-002
1.86000e-001,-6.24399e-005,2.79000e+000,7.99465e-001,2.79000e+000,3.83060e-002,2.79000e+000,1.71616e-002,2.79000e+000,5.99242e-001,2.79000e+000,3.54004e-002
1.87000e-001,-6.41184e-005,2.80500e+000,7.99822e-001,2.80500e+000,3.72947e-002,2.80500e+000,1.65525e-002,2.80500e+000,5.98847e-001,2.80500e+000,3.54004e-002
1.88000e-001,-6.07614e-005,2.82000e+000,8.00041e-001,2.82000e+000,3.67777e-002,2.82000e+000,1.61470e-002,2.82000e+000,5.98598e-001,2.82000e+000,3.54004e-002
1.89000e-001,-6.00900e-005,2.83500e+000,8.00202e-001,2.83500e+000,3.63926e-002,2.83500e+000,1.57542e-002,2.83500e+000,5.98416e-001,2.83500e+000,3.54004e-002
1.90000e-001,-6.14328e-005,2.85000e+000,8.00376e-001,2.85000e+000,3.61332e-002,2.85000e+000,1.56545e-002,2.85000e+000,5.98202e-001,2.85000e+000,3.54004e-002
1.91000e-001,-6.47898e-005,2.86500e+000,8.00279e-001,2.86500e+000,3.61524e-002,2.86500e+000,1.56691e-002,2.86500e+000,5.98330e-001,2.86500e+000,3.54004e-002
1.92000e-001,-5.97543e-005,2.88000e+000,8.00197e-001,2.88000e+000,3.62544e-002,2.88000e+000,1.56593e-002,2.88000e+000,5.98433e-001,2.88000e+000,3.54004e-002
1.93000e-001,-6.14328e-005,2.89500e+000,8.00265e-001,2.89500e+000,3.64571e-002,2.89500e+000,1.57997e-002,2.89500e+000,5.98326e-001,2.89500e+000,3.54004e-002
1.94000e-001,-6.51255e-005,2.91000e+000,8.00565e-001,2.91000e+000,3.71270e-002,2.91000e+000,1.59023e-002,2.91000e+000,5.97882e-001,2.91000e+000,3.54004e-002
1.95000e-001,-6.21042e-005,2.92500e+000,8.00790e-001,2.92500e+000,3.78259e-002,2.92500e+000,1.59776e-002,2.92500e+000,5.97534e-001,2.92500e+000,3.54004e-002
1.96000e-001,-6.21042e-005,2.94000e+000,8.01047e-001,2.94000e+000,3.88433e-002,2.94000e+000,1.59568e-002,2.94000e+000,5.97124e-001,2.94000e+000,3.54004e-002
1.97000e-001,-5.43832e-005,2.95500e+000,8.01438e-001,2.95500e+000,3.99666e-002,2.95500e+000,1.58550e-002,2.95500e+000,5.96528e-001,2.95500e+000,3.54004e-002
1.98000e-001,-5.87472e-005,2.97000e+000,8.01994e-001,2.97000e+000,4.16319e-002,2.97000e+000,1.54153e-002,2.97000e+000,5.95678e-001,2.97000e+000,3.54004e-002
1.99000e-001,-6.34470e-005,2.98500e+000,8.02331e-001,2.98500e+000,4.41095e-002,2.98500e+000,1.50593e-002,2.98500e+000,5.95055e-001,2.98500e+000,3.54004e-002
2.00000e-001,-5.67330e-005,3.00000e+000,8.02448e-001,3.00000e+000,4.63222e-002,3.00000e+000,1.47977e-002,3.00000e+000,5.94735e-001,3.00000e+000,3.54004e-002
2.01000e-001,-5.40475e-005,3.01500e+000,8.02401e-001,3.01500e+000,4.82116e-002,3.01500e+000,1.50807e-002,3.01500e+000,5.94642e-001,3.01500e+000,3.54004e-002
2.02000e-001,-6.04257e-005,3.03000e+000,8.02561e-001,3.03000e+000,4.89421e-002,3.03000e+000,1.53715e-002,3.03000e+000,5.94358e-001,3.03000e+000,3.54004e-002
2.03000e-001,-6.07614e-005,3.04500e+000,8.03243e-001,3.04500e+000,4.91327e-002,3.04500e+000,1.56195e-002,3.04500e+000,5.93414e-001,3.04500e+000,3.54004e-002
2.04000e-001,-6.21042e-005,3.06000e+000,8.03421e-001,3.06000e+000,4.90133e-002,3.06000e+000,1.58990e-002,3.06000e+000,5.93175e-001,3.06000e+000,3.54004e-002
2.05000e-001,-5.70687e-005,3.07500e+000,8.03760e-001,3.07500e+000,4.88042e-002,3.07500e+000,1.58413e-002,3.07500e+000,5.92734e-001,3.07500e+000,3.54004e-002
2.06000e-001,-5.80758e-005,3.09000e+000,8.04204e-001,3.09000e+000,4.85838e-002,3.09000e+000,1.54610e-002,3.09000e+000,5.92160e-001,3.09000e+000,3.54004e-002
2.07000e-001,-5.74044e-005,3.10500e+000,8.04636e-001,3.10500e+000,4.85866e-002,3.10500e+000,1.54256e-002,3.10500e+000,5.91574e-001,3.10500e+000,3.54004e-002
2.08000e-001,-5.57259e-005,3.12000e+000,8.05017e-001,3.12000e+000,4.87993e-002,3.12000e+000,1.60364e-002,3.12000e+000,5.91021e-001,3.12000e+000,3.54004e-002
2.09000e-001,-4.80049e-005,3.13500e+000,8.04959e-001,3.13500e+000,4.92818e-002,3.13500e+000,1.70756e-002,3.13500e+000,5.91031e-001,3.13500e+000,3.54004e-002
2.10000e-001,-4.66621e-005,3.15000e+000,8.04767e-001,3.15000e+000,5.01293e-002,3.15000e+000,1.82972e-002,3.15000e+000,5.91185e-001,3.15000e+000,3.54004e-002
2.11000e-001,-5.06905e-005,3.16500e+000,8.04476e-001,3.16500e+000,5.15724e-002,3.16500e+000,1.96396e-002,3.16500e+000,5.91413e-001,3.16500e+000,3.54004e-002
2.12000e-001,-5.94186e-005,3.18000e+000,8.04047e-001,3.18000e+000,5.26582e-002,3.18000e+000,2.03770e-002,3.18000e+000,5.91876e-001,3.18000e+000,3.54004e-002
2.13000e-001,-6.68040e-005,3.19500e+000,8.03402e-001,3.19500e+000,5.36484e-002,3.19500e+000,2.09208e-002,3.19500e+000,5.92643e-001,3.19500e+000,3.54004e-002
2.14000e-001,-6.51255e-005,3.21000e+000,8.03307e-001,3.21000e+000,5.39119e-002,3.21000e+000,2.10568e-002,3.21000e+000,5.92743e-001,3.21000e+000,3.54004e-002
2.15000e-001,-6.74754e-005,3.22500e+000,8.03430e-001,3.22500e+000,5.37715e-002,3.22500e+000,2.11850e-002,3.22500e+000,5.92585e-001,3.22500e+000,3.54004e-002
2.16000e-001,-6.14328e-005,3.24000e+000,8.03317e-001,3.24000e+000,5.31999e-002,3.24000e+000,2.16779e-002,3.24000e+000,5.92773e-001,3.24000e+000,3.54004e-002
2.17000e-001,-6.21042e-005,3.25500e+000,8.03125e-001,3.25500e+000,5.28812e-002,3.25500e+000,2.22266e-002,3.25500e+000,5.93041e-001,3.25500e+000,3.54004e-002
2.18000e-001,-5.80758e-005,3.27000e+000,8.02722e-001,3.27000e+000,5.26640e-002,3.27000e+000,2.29408e-002,3.27000e+000,5.93578e-001,3.27000e+000,3.54004e-002
2.19000e-001,-5.60616e-005,3.28500e+000,8.02507e-001,3.28500e+000,5.25233e-002,3.28500e+000,2.33486e-002,3.28500e+000,5.93865e-001,3.28500e+000,3.54004e-002
2.20000e-001,-5.67330e-005,3.30000e+000,8.02217e-001,3.30000e+000,5.23135e-002,3.30000e+000,2.38140e-002,3.30000e+000,5.94256e-001,3.30000e+000,3.54004e-002
2.21000e-001,-5.43832e-005,3.31500e+000,8.01775e-001,3.31500e+000,5.20978e-002,3.31500e+000,2.42413e-002,3.31500e+000,5.94855e-001,3.31500e+000,3.54004e-002
2.22000e-001,-5.84115e-005,3.33000e+000,8.01355e-001,3.33000e+000,5.19046e-002,3.33000e+000,2.44899e-002,3.33000e+000,5.95427e-001,3.33000e+000,3.54004e-002
2.23000e-001,-5.67330e-005,3.34500e+000,8.00934e-001,3.34500e+000,5.11980e-002,3.34500e+000,2.47930e-002,3.34500e+000,5.96043e-001,3.34500e+000,3.54004e-002
2.24000e-001,-5.87472e-005,3.36000e+000,8.00743e-001,3.36000e+000,5.06368e-002,3.36000e+000,2.52082e-002,3.36000e+000,5.96330e-001,3.36000e+000,3.54004e-002
2.25000e-001,-5.84115e-005,3.37500e+000,8.00226e-001,3.37500e+000,5.00344e-002,3.37500e+000,2.57802e-002,3.37500e+000,5.97049e-001,3.37500e+000,3.54004e-002
2.26000e-001,-6.00900e-005,3.39000e+000,7.99575e-001,3.39000e+000,4.99269e-002,3.39000e+000,2.62022e-002,3.39000e+000,5.97912e-001,3.39000e+000,3.54004e-002
2.27000e-001,-5.30404e-005,3.40500e+000,7.98825e-001,3.40500e+000,5.00601e-002,3.40500e+000,2.67547e-002,3.40500e+000,5.98878e-001,3.40500e+000,3.54004e-002
2.28000e-001,-5.80758e-005,3.42000e+000,7.97911e-001,3.42000e+000,5.01470e-002,3.42000e+000,2.71650e-002,3.42000e+000,6.00070e-001,3.42000e+000,3.54004e-002
2.29000e-001,-5.84115e-005,3.43500e+000,7.97030e-001,3.43500e+000,5.04909e-002,3.43500e+000,2.72221e-002,3.43500e+000,6.01209e-001,3.43500e+000,3.54004e-002
2.30000e-001,-5.43832e-005,3.45000e+000,7.95558e-001,3.45000e+000,5.10809e-002,3.45000e+000,2.74346e-002,3.45000e+000,6.03096e-001,3.45000e+000,3.54004e-002
2.31000e-001,-5.67330e-005,3.46500e+000,7.94532e-001,3.46500e+000,5.12539e-002,3.46500e+000,2.75718e-002,3.46500e+000,6.04426e-001,3.46500e+000,3.54004e-002
2.32000e-001,-6.07614e-005,3.48000e+000,7.93453e-001,3.48000e+000,5.11284e-002,3.48000e+000,2.80507e-002,3.48000e+000,6.05830e-001,3.48000e+000,3.54004e-002
2.33000e-001,-6.74754e-005,3.49500e+000,7.92518e-001,3.49500e+000,5.09572e-002,3.49500e+000,2.82421e-002,3.49500e+000,6.07058e-001,3.49500e+000,3.54004e-002
2.34000e-001,-5.94186e-005,3.51000e+000,7.92002e-001,3.51000e+000,5.08930e-002,3.51000e+000,2.84119e-002,3.51000e+000,6.07729e-001,3.51000e+000,3.54004e-002
2.35000e-001,-6.21042e-005,3.52500e+000,7.91644e-001,3.52500e+000,5.07988e-002,3.52500e+000,2.86627e-002,3.52500e+000,6.08191e-001,3.52500e+000,3.54004e-002
2.36000e-001,-6.14328e-005,3.54000e+000,7.91535e-001,3.54000e+000,5.07742e-002,3.54000e+000,2.87429e-002,3.54000e+000,6.08332e-001,3.54000e+000,3.54004e-002
2.37000e-001,-5.57259e-005,3.55500e+000,7.91035e-001,3.55500e+000,5.07924e-002,3.55500e+000,2.88863e-002,3.55500e+000,6.08973e-001,3.55500e+000,3.54004e-002
2.38000e-001,-5.84115e-005,3.57000e+000,7.90518e-001,3.57000e+000,5.08375e-002,3.57000e+000,2.90798e-002,3.57000e+000,6.09632e-001,3.57000e+000,3.54004e-002
2.39000e-001,-5.74044e-005,3.58500e+000,7.90304e-001,3.58500e+000,5.10564e-002,3.58500e+000,2.92490e-002,3.58500e+000,6.09883e-001,3.58500e+000,3.54004e-002
2.40000e-001,-5.87472e-005,3.60000e+000,7.90243e-001,3.60000e+000,5.14690e-002,3.60000e+000,2.92104e-002,3.60000e+000,6.09929e-001,3.60000e+000,3.54004e-002
2.41000e-001,-6.34470e-005,3.61500e+000,7.90199e-001,3.61500e+000,5.19486e-002,3.61500e+000,2.92556e-002,3.61500e+000,6.09942e-001,3.61500e+000,3.54004e-002
2.42000e-001,-6.07614e-005,3.63000e+000,7.90009e-001,3.63000e+000,5.25590e-002,3.63000e+000,2.97016e-002,3.63000e+000,6.10115e-001,3.63000e+000,3.54004e-002
2.43000e-001,-5.43832e-005,3.64500e+000,7.89827e-001,3.64500e+000,5.33273e-002,3.64500e+000,3.02531e-002,3.64500e+000,6.10257e-001,3.64500e+000,3.54004e-002
2.44000e-001,-5.50546e-005,3.66000e+000,7.89465e-001,3.66000e+000,5.44361e-002,3.66000e+000,3.09686e-002,3.66000e+000,6.10591e-001,3.66000e+000,3.54004e-002
2.45000e-001,-4.86763e-005,3.67500e+000,7.88867e-001,3.67500e+000,5.62750e-002,3.67500e+000,3.18858e-002,3.67500e+000,6.11150e-001,3.67500e+000,3.54004e-002
2.46000e-001,-4.86763e-005,3.69000e+000,7.88342e-001,3.69000e+000,5.80346e-002,3.69000e+000,3.26276e-002,3.69000e+000,6.11623e-001,3.69000e+000,3.54004e-002
2.47000e-001,-5.16976e-005,3.70500e+000,7.87281e-001,3.70500e+000,6.06557e-002,3.70500e+000,3.36510e-002,3.70500e+000,6.12680e-001,3.70500e+000,3.61328e-002
2.48000e-001,-5.27047e-005,3.72000e+000,7.86688e-001,3.72000e+000,6.24367e-002,3.72000e+000,3.44076e-002,3.72000e+000,6.13221e-001,3.72000e+000,3.67432e-002
2.49000e-001,-4.59907e-005,3.73500e+000,7.86421e-001,3.73500e+000,6.45343e-002,3.73500e+000,3.51241e-002,3.73500e+000,6.13306e-001,3.73500e+000,3.67432e-002
2.50000e-001,-6.00900e-005,3.75000e+000,7.86177e-001,3.75000e+000,6.63306e-002,3.75000e+000,3.55785e-002,3.75000e+000,6.13401e-001,3.75000e+000,3.67432e-002
2.51000e-001,-6.47898e-005,3.76500e+000,7.86335e-001,3.76500e+000,6.80815e-002,3.76500e+000,3.58841e-002,3.76500e+000,6.12988e-001,3.76500e+000,3.67432e-002
2.52000e-001,-6.14328e-005,3.78000e+000,7.87123e-001,3.78000e+000,6.98382e-002,3.78000e+000,3.56680e-002,3.78000e+000,6.11790e-001,3.78000e+000,3.67432e-002
2.53000e-001,-5.80758e-005,3.79500e+000,7.88178e-001,3.79500e+000,7.12811e-002,3.79500e+000,3.47339e-002,3.79500e+000,6.10318e-001,3.79500e+000,3.67432e-002
2.54000e-001,-6.27756e-005,3.81000e+000,7.90296e-001,3.81000e+000,7.26729e-002,3.81000e+000,3.37281e-002,3.81000e+000,6.07464e-001,3.81000e+000,3.67432e-002
2.55000e-001,-6.61326e-005,3.82500e+000,7.92783e-001,3.82500e+000,7.34091e-002,3.82500e+000,3.32215e-002,3.82500e+000,6.04153e-001,3.82500e+000,3.67432e-002
2.56000e-001,-6.07614e-005,3.84000e+000,7.96005e-001,3.84000e+000,7.40565e-002,3.84000e+000,3.25093e-002,3.84000e+000,5.99862e-001,3.84000e+000,3.67432e-002
2.57000e-001,-6.47898e-005,3.85500e+000,8.00281e-001,3.85500e+000,7.61160e-002,3.85500e+000,3.04133e-002,3.85500e+000,5.93995e-001,3.85500e+000,3.67432e-002
2.58000e-001,-5.80758e-005,3.87000e+000,8.03631e-001,3.87000e+000,7.81598e-002,3.87000e+000,2.83109e-002,3.87000e+000,5.89290e-001,3.87000e+000,3.67432e-002
2.59000e-001,-5.94186e-005,3.88500e+000,8.08242e-001,3.88500e+000,8.06329e-002,3.88500e+000,2.64892e-002,3.88500e+000,5.82697e-001,3.88500e+000,3.67432e-002
2.60000e-001,-5.74044e-005,3.90000e+000,8.12388e-001,3.90000e+000,8.09003e-002,3.90000e+000,2.67884e-002,3.90000e+000,5.76850e-001,3.90000e+000,3.67432e-002
2.61000e-001,-5.80758e-005,3.91500e+000,8.18045e-001,3.91500e+000,7.95310e-002,3.91500e+000,2.83833e-002,3.91500e+000,5.68912e-001,3.91500e+000,3.67432e-002
2.62000e-001,-5.67330e-005,3.93000e+000,8.21687e-001,3.93000e+000,8.01954e-002,3.93000e+000,2.84007e-002,3.93000e+000,5.63543e-001,3.93000e+000,3.67432e-002
2.63000e-001,-5.87472e-005,3.94500e+000,8.25527e-001,3.94500e+000,8.16253e-002,3.94500e+000,2.78597e-002,3.94500e+000,5.57717e-001,3.94500e+000,3.67432e-002
2.64000e-001,-6.17685e-005,3.96000e+000,8.30727e-001,3.96000e+000,7.98396e-002,3.96000e+000,2.88148e-002,3.96000e+000,5.50148e-001,3.96000e+000,3.67432e-002
2.65000e-001,-6.00900e-005,3.97500e+000,8.34108e-001,3.97500e+000,7.65997e-002,3.97500e+000,3.01813e-002,3.97500e+000,5.45413e-001,3.97500e+000,3.67432e-002
2.66000e-001,-5.94186e-005,3.99000e+000,8.37684e-001,3.99000e+000,7.37162e-002,3.99000e+000,3.14866e-002,3.99000e+000,5.40233e-001,3.99000e+000,3.72314e-002
2.67000e-001,-5.94186e-005,4.00500e+000,8.40608e-001,4.00500e+000,7.15449e-002,4.00500e+000,3.22906e-002,4.00500e+000,5.35919e-001,4.00500e+000,3.72314e-002
2.68000e-001,-6.47898e-005,4.02000e+000,8.43864e-001,4.02000e+000,6.88090e-002,4.02000e+000,3.30640e-002,4.02000e+000,5.31093e-001,4.02000e+000,3.72314e-002
2.69000e-001,-6.91539e-005,4.03500e+000,8.47907e-001,4.03500e+000,6.44501e-002,4.03500e+000,3.46669e-002,4.03500e+000,5.25065e-001,4.03500e+000,3.72314e-002
2.70000e-001,-6.88182e-005,4.05000e+000,8.50830e-001,4.05000e+000,6.09947e-002,4.05000e+000,3.61856e-002,4.05000e+000,5.20629e-001,4.05000e+000,3.72314e-002
2.71000e-001,-6.78111e-005,4.06500e+000,8.54696e-001,4.06500e+000,5.70735e-002,4.06500e+000,3.82847e-002,4.06500e+000,5.14556e-001,4.06500e+000,3.72314e-002
2.72000e-001,-6.94896e-005,4.08000e+000,8.57721e-001,4.08000e+000,5.43633e-002,4.08000e+000,3.93714e-002,4.08000e+000,5.09711e-001,4.08000e+000,3.72314e-002
2.73000e-001,-6.17685e-005,4.09500e+000,8.61104e-001,4.09500e+000,5.13917e-002,4.09500e+000,4.00022e-002,4.09500e+000,5.04237e-001,4.09500e+000,3.72314e-002
2.74000e-001,-6.34470e-005,4.11000e+000,8.66397e-001,4.11000e+000,4.66605e-002,4.11000e+000,4.08448e-002,4.11000e+000,4.95489e-001,4.11000e+000,3.72314e-002
2.75000e-001,-5.47189e-005,4.12500e+000,8.70641e-001,4.12500e+000,4.26091e-002,4.12500e+000,4.18338e-002,4.12500e+000,4.88280e-001,4.12500e+000,3.72314e-002
2.76000e-001,-5.70687e-005,4.14000e+000,8.76352e-001,4.14000e+000,3.75857e-002,4.14000e+000,4.27464e-002,4.14000e+000,4.78295e-001,4.14000e+000,3.72314e-002
2.77000e-001,-5.74044e-005,4.15500e+000,8.80673e-001,4.15500e+000,3.52238e-002,4.15500e+000,4.30260e-002,4.15500e+000,4.70449e-001,4.15500e+000,3.69873e-002
2.78000e-001,-5.57259e-005,4.17000e+000,8.86478e-001,4.17000e+000,3.30527e-002,4.17000e+000,4.30874e-002,4.17000e+000,4.59573e-001,4.17000e+000,3.69873e-002
2.79000e-001,-5.47189e-005,4.18500e+000,8.90908e-001,4.18500e+000,3.12426e-002,4.18500e+000,4.30749e-002,4.18500e+000,4.51056e-001,4.18500e+000,3.69873e-002
2.80000e-001,-5.23690e-005,4.20000e+000,8.95486e-001,4.20000e+000,2.94923e-002,4.20000e+000,4.27268e-002,4.20000e+000,4.42051e-001,4.20000e+000,3.69873e-002
2.81000e-001,-5.47189e-005,4.21500e+000,9.01436e-001,4.21500e+000,2.82423e-002,4.21500e+000,4.05441e-002,4.21500e+000,4.30083e-001,4.21500e+000,3.69873e-002
2.82000e-001,-5.57259e-005,4.23000e+000,9.05601e-001,4.23000e+000,2.79562e-002,4.23000e+000,3.75003e-002,4.23000e+000,4.21543e-001,4.23000e+000,3.69873e-002
2.83000e-001,-5.27047e-005,4.24500e+000,9.10368e-001,4.24500e+000,2.70184e-002,4.24500e+000,3.29748e-002,4.24500e+000,4.11597e-001,4.24500e+000,3.69873e-002
2.84000e-001,-5.90829e-005,4.26000e+000,9.14014e-001,4.26000e+000,2.62862e-002,4.26000e+000,2.93183e-002,4.26000e+000,4.03767e-001,4.26000e+000,3.69873e-002
2.85000e-001,-6.54612e-005,4.27500e+000,9.17978e-001,4.27500e+000,2.58375e-002,4.27500e+000,2.55996e-002,4.27500e+000,3.94959e-001,4.27500e+000,3.68652e-002
2.86000e-001,-5.60616e-005,4.29000e+000,9.23286e-001,4.29000e+000,2.50691e-002,4.29000e+000,1.98860e-002,4.29000e+000,3.82778e-001,4.29000e+000,3.71094e-002
2.87000e-001,-5.74044e-005,4.30500e+000,9.26930e-001,4.30500e+000,2.48121e-002,4.30500e+000,1.49461e-002,4.30500e+000,3.74114e-001,4.30500e+000,3.71094e-002
2.88000e-001,-6.17685e-005,4.32000e+000,9.31020e-001,4.32000e+000,2.50835e-002,4.32000e+000,8.61496e-003,4.32000e+000,3.64002e-001,4.32000e+000,3.71094e-002
2.89000e-001,-5.84115e-005,4.33500e+000,9.34244e-001,4.33500e+000,2.57507e-002,4.33500e+000,3.81954e-003,4.33500e+000,3.55682e-001,4.33500e+000,3.71094e-002
2.90000e-001,-6.10971e-005,4.35000e+000,9.38566e-001,4.35000e+000,2.73097e-002,4.35000e+000,-3.40125e-003,4.35000e+000,3.44000e-001,4.35000e+000,3.71094e-002
2.91000e-001,-5.67330e-005,4.36500e+000,9.41470e-001,4.36500e+000,2.89118e-002,4.36500e+000,-9.81505e-003,4.36500e+000,3.35710e-001,4.36500e+000,3.71094e-002
2.92000e-001,-5.47189e-005,4.38000e+000,9.44068e-001,4.38000e+000,3.05472e-002,4.38000e+000,-1.67478e-002,4.38000e+000,3.27904e-001,4.38000e+000,3.71094e-002
2.93000e-001,-5.20333e-005,4.39500e+000,9.47357e-001,4.39500e+000,3.24909e-002,4.39500e+000,-2.67793e-002,4.39500e+000,3.17398e-001,4.39500e+000,3.78418e-002
2.94000e-001,-5.40475e-005,4.41000e+000,9.50016e-001,4.41000e+000,3.38061e-002,4.41000e+000,-3.42581e-002,4.41000e+000,3.08410e-001,4.41000e+000,3.78418e-002
2.95000e-001,-5.40475e-005,4.42500e+000,9.53185e-001,4.42500e+000,3.50185e-002,4.42500e+000,-4.38889e-002,4.42500e+000,2.97080e-001,4.42500e+000,3.78418e-002
2.96000e-001,-6.21042e-005,4.44000e+000,9.55198e-001,4.44000e+000,3.57104e-002,4.44000e+000,-5.11397e-002,4.44000e+000,2.89280e-001,4.44000e+000,3.78418e-002
2.97000e-001,-5.67330e-005,4.45500e+000,9.57171e-001,4.45500e+000,3.69944e-002,4.45500e+000,-5.84258e-002,4.45500e+000,2.81106e-001,4.45500e+000,3.78418e-002
2.98000e-001,-6.07614e-005,4.47000e+000,9.59943e-001,4.47000e+000,3.96553e-002,4.47000e+000,-6.84352e-002,4.47000e+000,2.68770e-001,4.47000e+000,3.78418e-002
2.99000e-001,-6.47898e-005,4.48500e+000,9.62039e-001,4.48500e+000,4.20170e-002,4.48500e+000,-7.57573e-002,4.48500e+000,2.58775e-001,4.48500e+000,3.79639e-002
3.00000e-001,-5.94186e-005,4.50000e+000,9.64637e-001,4.50000e+000,4.43696e-002,4.50000e+000,-8.25100e-002,4.50000e+000,2.46351e-001,4.50000e+000,3.86963e-002
3.01000e-001,-5.97543e-005,4.51500e+000,9.66463e-001,4.51500e+000,4.50845e-002,4.51500e+000,-8.50227e-002,4.51500e+000,2.38076e-001,4.51500e+000,3.86963e-002
3.02000e-001,-6.04257e-005,4.53000e+000,9.68045e-001,4.53000e+000,4.50209e-002,4.53000e+000,-8.64795e-002,4.53000e+000,2.31034e-001,4.53000e+000,3.86963e-002
3.03000e-001,-6.04257e-005,4.54500e+000,9.69479e-001,4.54500e+000,4.55408e-002,4.54500e+000,-9.15311e-002,4.54500e+000,2.22831e-001,4.54500e+000,3.86963e-002
3.04000e-001,-6.14328e-005,4.56000e+000,9.70160e-001,4.56000e+000,4.60927e-002,4.56000e+000,-9.65143e-002,4.56000e+000,2.17590e-001,4.56000e+000,3.86963e-002
3.05000e-001,-5.94186e-005,4.57500e+000,9.70915e-001,4.57500e+000,4.68560e-002,4.57500e+000,-1.03581e-001,4.57500e+000,2.10700e-001,4.57500e+000,3.86963e-002
3.06000e-001,-5.67330e-005,4.59000e+000,9.71362e-001,4.59000e+000,4.77627e-002,4.59000e+000,-1.09442e-001,4.59000e+000,2.05408e-001,4.59000e+000,3.86963e-002
3.07000e-001,-5.40475e-005,4.60500e+000,9.71737e-001,4.60500e+000,4.82687e-002,4.60500e+000,-1.16520e-001,4.60500e+000,1.99541e-001,4.60500e+000,3.86963e-002
3.08000e-001,-5.94186e-005,4.62000e+000,9.72096e-001,4.62000e+000,4.76126e-002,4.62000e+000,-1.20076e-001,4.62000e+000,1.95809e-001,4.62000e+000,3.86963e-002
3.09000e-001,-5.43832e-005,4.63500e+000,9.72387e-001,4.63500e+000,4.70440e-002,4.63500e+000,-1.23420e-001,4.63500e+000,1.92389e-001,4.63500e+000,3.86963e-002
3.10000e-001,-5.74044e-005,4.65000e+000,9.72486e-001,4.65000e+000,4.61920e-002,4.65000e+000,-1.31230e-001,4.65000e+000,1.86851e-001,4.65000e+000,3.82080e-002
3.11000e-001,-5.94186e-005,4.66500e+000,9.72148e-001,4.66500e+000,4.53060e-002,4.66500e+000,-1.39955e-001,4.66500e+000,1.82438e-001,4.66500e+000,3.83301e-002
3.12000e-001,-6.04257e-005,4.68000e+000,9.71648e-001,4.68000e+000,4.37539e-002,4.68000e+000,-1.52223e-001,4.68000e+000,1.75529e-001,4.68000e+000,3.83301e-002
3.13000e-001,-6.64683e-005,4.69500e+000,9.71211e-001,4.69500e+000,4.20293e-002,4.69500e+000,-1.60984e-001,4.69500e+000,1.70479e-001,4.69500e+000,3.83301e-002
3.14000e-001,-6.34470e-005,4.71000e+000,9.70772e-001,4.71000e+000,4.02202e-002,4.71000e+000,-1.68740e-001,4.71000e+000,1.65849e-001,4.71000e+000,3.83301e-002
3.15000e-001,-6.24399e-005,4.72500e+000,9.69779e-001,4.72500e+000,3.89037e-002,4.72500e+000,-1.78772e-001,4.72500e+000,1.61401e-001,4.72500e+000,3.83301e-002
3.16000e-001,-6.34470e-005,4.74000e+000,9.68630e-001,4.74000e+000,3.90278e-002,4.74000e+000,-1.86422e-001,4.74000e+000,1.59606e-001,4.74000e+000,3.83301e-002
3.17000e-001,-6.10971e-005,4.75500e+000,9.66753e-001,4.75500e+000,3.91255e-002,4.75500e+000,-1.96872e-001,4.75500e+000,1.58404e-001,4.75500e+000,3.83301e-002
3.18000e-001,-6.21042e-005,4.77000e+000,9.65717e-001,4.77000e+000,3.76753e-002,4.77000e+000,-2.02593e-001,4.77000e+000,1.57858e-001,4.77000e+000,3.83301e-002
3.19000e-001,-5.97543e-005,4.78500e+000,9.64644e-001,4.78500e+000,3.53960e-002,4.78500e+000,-2.08513e-001,4.78500e+000,1.57231e-001,4.78500e+000,3.83301e-002
3.20000e-001,-6.27756e-005,4.80000e+000,9.63872e-001,4.80000e+000,3.44781e-002,4.80000e+000,-2.12096e-001,4.80000e+000,1.57375e-001,4.80000e+000,3.90625e-002
3.21000e-001,-6.27756e-005,4.81500e+000,9.63183e-001,4.81500e+000,3.40713e-002,4.81500e+000,-2.15000e-001,4.81500e+000,1.57736e-001,4.81500e+000,3.90625e-002
3.22000e-001,-5.43832e-005,4.83000e+000,9.62645e-001,4.83000e+000,3.36711e-002,4.83000e+000,-2.17372e-001,4.83000e+000,1.57853e-001,4.83000e+000,3.90625e-002
3.23000e-001,-5.33761e-005,4.84500e+000,9.62479e-001,4.84500e+000,3.37650e-002,4.84500e+000,-2.17936e-001,4.84500e+000,1.58069e-001,4.84500e+000,3.90625e-002
3.24000e-001,-5.53903e-005,4.86000e+000,9.62326e-001,4.86000e+000,3.40565e-002,4.86000e+000,-2.17767e-001,4.86000e+000,1.59165e-001,4.86000e+000,3.90625e-002
3.25000e-001,-6.37827e-005,4.87500e+000,9.62254e-001,4.87500e+000,3.45078e-002,4.87500e+000,-2.17197e-001,4.87500e+000,1.60277e-001,4.87500e+000,3.90625e-002
3.26000e-001,-5.74044e-005,4.89000e+000,9.62486e-001,4.89000e+000,3.47531e-002,4.89000e+000,-2.15810e-001,4.89000e+000,1.60707e-001,4.89000e+000,3.90625e-002
3.27000e-001,-5.00191e-005,4.90500e+000,9.62919e-001,4.90500e+000,3.51518e-002,4.90500e+000,-2.12765e-001,4.90500e+000,1.62080e-001,4.90500e+000,3.90625e-002
3.28000e-001,-4.36408e-005,4.92000e+000,9.63145e-001,4.92000e+000,3.56137e-002,4.92000e+000,-2.10567e-001,4.92000e+000,1.63503e-001,4.92000e+000,3.90625e-002
3.29000e-001,-5.47189e-005,4.93500e+000,9.63240e-001,4.93500e+000,3.64639e-002,4.93500e+000,-2.08266e-001,4.93500e+000,1.65692e-001,4.93500e+000,3.90625e-002
3.30000e-001,-5.57259e-005,4.95000e+000,9.63372e-001,4.95000e+000,3.70087e-002,4.95000e+000,-2.06629e-001,4.95000e+000,1.66848e-001,4.95000e+000,3.90625e-002
3.31000e-001,-5.63973e-005,4.96500e+000,9.63586e-001,4.96500e+000,3.73750e-002,4.96500e+000,-2.04910e-001,4.96500e+000,1.67648e-001,4.96500e+000,3.90625e-002
3.32000e-001,-5.13619e-005,4.98000e+000,9.63776e-001,4.98000e+000,3.82521e-002,4.98000e+000,-2.02376e-001,4.98000e+000,1.69427e-001,4.98000e+000,3.90625e-002
3.33000e-001,-5.16976e-005,4.99500e+000,9.63883e-001,4.99500e+000,3.90494e-002,4.99500e+000,-2.00485e-001,4.99500e+000,1.70877e-001,4.99500e+000,3.90625e-002
3.34000e-001,-6.14328e-005,5.01000e+000,9.64004e-001,5.01000e+000,4.03298e-002,5.01000e+000,-1.98116e-001,5.01000e+000,1.72653e-001,5.01000e+000,3.90625e-002
3.35000e-001,-6.34470e-005,5.02500e+000,9.64118e-001,5.02500e+000,4.13025e-002,5.02500e+000,-1.96614e-001,5.02500e+000,1.73503e-001,5.02500e+000,3.90625e-002
3.36000e-001,-6.74754e-005,5.04000e+000,9.64126e-001,5.04000e+000,4.25917e-002,5.04000e+000,-1.95018e-001,5.04000e+000,1.74945e-001,5.04000e+000,3.90625e-002
3.37000e-001,-5.67330e-005,5.05500e+000,9.64043e-001,5.05500e+000,4.34705e-002,5.05500e+000,-1.94079e-001,5.05500e+000,1.76221e-001,5.05500e+000,3.90625e-002
3.38000e-001,-6.61326e-005,5.07000e+000,9.63982e-001,5.07000e+000,4.42673e-002,5.07000e+000,-1.93212e-001,5.07000e+000,1.77308e-001,5.07000e+000,3.90625e-002
3.39000e-001,-6.47898e-005,5.08500e+000,9.63968e-001,5.08500e+000,4.47229e-002,5.08500e+000,-1.92154e-001,5.08500e+000,1.78416e-001,5.08500e+000,3.90625e-002
3.40000e-001,-7.08324e-005,5.10000e+000,9.63862e-001,5.10000e+000,4.51167e-002,5.10000e+000,-1.91521e-001,5.10000e+000,1.79568e-001,5.10000e+000,3.90625e-002
3.41000e-001,-7.01610e-005,5.11500e+000,9.63670e-001,5.11500e+000,4.58019e-002,5.11500e+000,-1.90498e-001,5.11500e+000,1.81501e-001,5.11500e+000,3.90625e-002
3.42000e-001,-6.07614e-005,5.13000e+000,9.63557e-001,5.13000e+000,4.63451e-002,5.13000e+000,-1.89899e-001,5.13000e+000,1.82588e-001,5.13000e+000,3.90625e-002
3.43000e-001,-5.80758e-005,5.14500e+000,9.63541e-001,5.14500e+000,4.68818e-002,5.14500e+000,-1.89389e-001,5.14500e+000,1.83062e-001,5.14500e+000,3.90625e-002
3.44000e-001,-5.87472e-005,5.16000e+000,9.63453e-001,5.16000e+000,4.74641e-002,5.16000e+000,-1.88733e-001,5.16000e+000,1.84051e-001,5.16000e+000,3.90625e-002
3.45000e-001,-6.21042e-005,5.17500e+000,9.63293e-001,5.17500e+000,4.77586e-002,5.17500e+000,-1.88087e-001,5.17500e+000,1.85466e-001,5.17500e+000,3.90625e-002
3.46000e-001,-5.43832e-005,5.19000e+000,9.62981e-001,5.19000e+000,4.81788e-002,5.19000e+000,-1.87466e-001,5.19000e+000,1.87593e-001,5.19000e+000,3.90625e-002
3.47000e-001,-6.34470e-005,5.20500e+000,9.62839e-001,5.20500e+000,4.83944e-002,5.20500e+000,-1.87364e-001,5.20500e+000,1.88369e-001,5.20500e+000,3.90625e-002
3.48000e-001,-5.94186e-005,5.22000e+000,9.62704e-001,5.22000e+000,4.84695e-002,5.22000e+000,-1.86954e-001,5.22000e+000,1.89444e-001,5.22000e+000,3.90625e-002
3.49000e-001,-5.70687e-005,5.23500e+000,9.62491e-001,5.23500e+000,4.85544e-002,5.23500e+000,-1.86678e-001,5.23500e+000,1.90768e-001,5.23500e+000,3.90625e-002
3.50000e-001,-5.33761e-005,5.25000e+000,9.62283e-001,5.25000e+000,4.87268e-002,5.25000e+000,-1.86735e-001,5.25000e+000,1.91714e-001,5.25000e+000,3.90625e-002
3.51000e-001,-5.53903e-005,5.26500e+000,9.62106e-001,5.26500e+000,4.90409e-002,5.26500e+000,-1.86931e-001,5.26500e+000,1.92331e-001,5.26500e+000,3.90625e-002
3.52000e-001,-5.70687e-005,5.28000e+000,9.62014e-001,5.28000e+000,4.92902e-002,5.28000e+000,-1.86946e-001,5.28000e+000,1.92711e-001,5.28000e+000,3.90625e-002
3.53000e-001,-5.80758e-005,5.29500e+000,9.61758e-001,5.29500e+000,4.98915e-002,5.29500e+000,-1.86790e-001,5.29500e+000,1.93983e-001,5.29500e+000,3.90625e-002
3.54000e-001,-5.84115e-005,5.31000e+000,9.61520e-001,5.31000e+000,5.03729e-002,5.31000e+000,-1.86744e-001,5.31000e+000,1.95077e-001,5.31000e+000,3.90625e-002
3.55000e-001,-6.81468e-005,5.32500e+000,9.61369e-001,5.32500e+000,5.07435e-002,5.32500e+000,-1.86756e-001,5.32500e+000,1.95712e-001,5.32500e+000,3.90625e-002
3.56000e-001,-6.88182e-005,5.34000e+000,9.61218e-001,5.34000e+000,5.11105e-002,5.34000e+000,-1.86678e-001,5.34000e+000,1.96432e-001,5.34000e+000,3.90625e-002
3.57000e-001,-6.14328e-005,5.35500e+000,9.61092e-001,5.35500e+000,5.14359e-002,5.35500e+000,-1.86579e-001,5.35500e+000,1.97055e-001,5.35500e+000,3.90625e-002
3.58000e-001,-5.80758e-005,5.37000e+000,9.60878e-001,5.37000e+000,5.20465e-002,5.37000e+000,-1.86418e-001,5.37000e+000,1.98087e-001,5.37000e+000,3.90625e-002
3.59000e-001,-5.80758e-005,5.38500e+000,9.60860e-001,5.38500e+000,5.21170e-002,5.38500e+000,-1.86302e-001,5.38500e+000,1.98267e-001,5.38500e+000,3.90625e-002
3.60000e-001,-6.31113e-005,5.40000e+000,9.60894e-001,5.40000e+000,5.20646e-002,5.40000e+000,-1.85971e-001,5.40000e+000,1.98425e-001,5.40000e+000,3.90625e-002
3.61000e-001,-6.34470e-005,5.41500e+000,9.60797e-001,5.41500e+000,5.21234e-002,5.41500e+000,-1.85748e-001,5.41500e+000,1.99089e-001,5.41500e+000,3.90625e-002
3.62000e-001,-6.24399e-005,5.43000e+000,9.60609e-001,5.43000e+000,5.23147e-002,5.43000e+000,-1.85509e-001,5.43000e+000,2.00163e-001,5.43000e+000,3.90625e-002
3.63000e-001,-5.87472e-005,5.44500e+000,9.60545e-001,5.44500e+000,5.23015e-002,5.44500e+000,-1.85047e-001,5.44500e+000,2.00901e-001,5.44500e+000,3.90625e-002
3.64000e-001,-5.60616e-005,5.46000e+000,9.60489e-001,5.46000e+000,5.22051e-002,5.46000e+000,-1.84745e-001,5.46000e+000,2.01471e-001,5.46000e+000,3.90625e-002
3.65000e-001,-5.74044e-005,5.47500e+000,9.60393e-001,5.47500e+000,5.19362e-002,5.47500e+000,-1.84160e-001,5.47500e+000,2.02531e-001,5.47500e+000,3.90625e-002
3.66000e-001,-6.07614e-005,5.49000e+000,9.60250e-001,5.49000e+000,5.17245e-002,5.49000e+000,-1.83915e-001,5.49000e+000,2.03483e-001,5.49000e+000,3.90625e-002
3.67000e-001,-5.40475e-005,5.50500e+000,9.60077e-001,5.50500e+000,5.16164e-002,5.50500e+000,-1.84433e-001,5.50500e+000,2.03856e-001,5.50500e+000,3.90625e-002
3.68000e-001,-5.53903e-005,5.52000e+000,9.59654e-001,5.52000e+000,5.22370e-002,5.52000e+000,-1.87652e-001,5.52000e+000,2.02746e-001,5.52000e+000,3.90625e-002
3.69000e-001,-5.67330e-005,5.53500e+000,9.59188e-001,5.53500e+000,5.31823e-002,5.53500e+000,-1.90507e-001,5.53500e+000,2.02042e-001,5.53500e+000,3.90625e-002
3.70000e-001,-5.43832e-005,5.55000e+000,9.58566e-001,5.55000e+000,5.40375e-002,5.55000e+000,-1.92744e-001,5.55000e+000,2.02643e-001,5.55000e+000,3.90625e-002
3.71000e-001,-5.70687e-005,5.56500e+000,9.58241e-001,5.56500e+000,5.41069e-002,5.56500e+000,-1.93359e-001,5.56500e+000,2.03571e-001,5.56500e+000,3.90625e-002
3.72000e-001,-5.53903e-005,5.58000e+000,9.58126e-001,5.58000e+000,5.38543e-002,5.58000e+000,-1.93090e-001,5.58000e+000,2.04430e-001,5.58000e+000,3.90625e-002
3.73000e-001,-6.04257e-005,5.59500e+000,9.57986e-001,5.59500e+000,5.34976e-002,5.59500e+000,-1.92201e-001,5.59500e+000,2.06011e-001,5.59500e+000,3.90625e-002
3.74000e-001,-6.21042e-005,5.61000e+000,9.57806e-001,5.61000e+000,5.35053e-002,5.61000e+000,-1.90957e-001,5.61000e+000,2.07996e-001,5.61000e+000,3.90625e-002
3.75000e-001,-5.60616e-005,5.62500e+000,9.57707e-001,5.62500e+000,5.30530e-002,5.62500e+000,-1.87970e-001,5.62500e+000,2.11261e-001,5.62500e+000,3.90625e-002
3.76000e-001,-4.63264e-005,5.64000e+000,9.57740e-001,5.64000e+000,5.22255e-002,5.64000e+000,-1.85000e-001,5.64000e+000,2.13921e-001,5.64000e+000,3.90625e-002
3.77000e-001,-5.03548e-005,5.65500e+000,9.57910e-001,5.65500e+000,5.06494e-002,5.65500e+000,-1.79370e-001,5.65500e+000,2.18292e-001,5.65500e+000,3.90625e-002
3.78000e-001,-5.97543e-005,5.67000e+000,9.57955e-001,5.67000e+000,4.91962e-002,5.67000e+000,-1.74752e-001,5.67000e+000,2.22138e-001,5.67000e+000,3.90625e-002
3.79000e-001,-5.74044e-005,5.68500e+000,9.58028e-001,5.68500e+000,4.76081e-002,5.68500e+000,-1.70294e-001,5.68500e+000,2.25605e-001,5.68500e+000,3.90625e-002
3.80000e-001,-6.00900e-005,5.70000e+000,9.58152e-001,5.70000e+000,4.53931e-002,5.70000e+000,-1.64759e-001,5.70000e+000,2.29610e-001,5.70000e+000,3.90625e-002
3.81000e-001,-5.53903e-005,5.71500e+000,9.58058e-001,5.71500e+000,4.33827e-002,5.71500e+000,-1.61498e-001,5.71500e+000,2.32685e-001,5.71500e+000,3.75977e-002
3.82000e-001,-6.34470e-005,5.73000e+000,9.57688e-001,5.73000e+000,3.98516e-002,5.73000e+000,-1.56650e-001,5.73000e+000,2.38091e-001,5.73000e+000,3.75977e-002
3.83000e-001,-6.81468e-005,5.74500e+000,9.57234e-001,5.74500e+000,3.65348e-002,5.74500e+000,-1.53212e-001,5.74500e+000,2.42640e-001,5.74500e+000,3.75977e-002
3.84000e-001,-5.94186e-005,5.76000e+000,9.56798e-001,5.76000e+000,3.29837e-002,5.76000e+000,-1.49589e-001,5.76000e+000,2.47087e-001,5.76000e+000,3.75977e-002
3.85000e-001,-6.78111e-005,5.77500e+000,9.56071e-001,5.77500e+000,2.81678e-002,5.77500e+000,-1.45388e-001,5.77500e+000,2.52931e-001,5.77500e+000,3.75977e-002
3.86000e-001,-6.47898e-005,5.79000e+000,9.55155e-001,5.79000e+000,2.51305e-002,5.79000e+000,-1.43603e-001,5.79000e+000,2.57685e-001,5.79000e+000,3.75977e-002
3.87000e-001,-5.50546e-005,5.80500e+000,9.53707e-001,5.80500e+000,2.13293e-002,5.80500e+000,-1.42470e-001,5.80500e+000,2.63937e-001,5.80500e+000,3.75977e-002
3.88000e-001,-4.80049e-005,5.82000e+000,9.52635e-001,5.82000e+000,1.84897e-002,5.82000e+000,-1.42225e-001,5.82000e+000,2.68116e-001,5.82000e+000,3.75977e-002
3.89000e-001,-5.47189e-005,5.83500e+000,9.51584e-001,5.83500e+000,1.58674e-002,5.83500e+000,-1.42461e-001,5.83500e+000,2.71862e-001,5.83500e+000,3.75977e-002
3.90000e-001,-5.40475e-005,5.85000e+000,9.48886e-001,5.85000e+000,9.34636e-003,5.85000e+000,-1.45052e-001,5.85000e+000,2.80087e-001,5.85000e+000,3.75977e-002
3.91000e-001,-5.27047e-005,5.86500e+000,9.47434e-001,5.86500e+000,8.20276e-003,5.86500e+000,-1.44452e-001,5.86500e+000,2.85368e-001,5.86500e+000,3.75977e-002
3.92000e-001,-6.04257e-005,5.88000e+000,9.45212e-001,5.88000e+000,5.21645e-003,5.88000e+000,-1.43106e-001,5.88000e+000,2.93374e-001,5.88000e+000,3.75977e-002
3.93000e-001,-5.80758e-005,5.89500e+000,9.43394e-001,5.89500e+000,3.60677e-003,5.89500e+000,-1.42008e-001,5.89500e+000,2.99713e-001,5.89500e+000,3.75977e-002
3.94000e-001,-5.50546e-005,5.91000e+000,9.40031e-001,5.91000e+000,7.94849e-004,5.91000e+000,-1.41185e-001,5.91000e+000,3.10497e-001,5.91000e+000,3.69873e-002
3.95000e-001,-6.14328e-005,5.92500e+000,9.37564e-001,5.92500e+000,1.08538e-003,5.92500e+000,-1.40161e-001,5.92500e+000,3.18319e-001,5.92500e+000,3.69873e-002
3.96000e-001,-5.40475e-005,5.94000e+000,9.35325e-001,5.94000e+000,-1.26725e-004,5.94000e+000,-1.38757e-001,5.94000e+000,3.25443e-001,5.94000e+000,3.69873e-002
3.97000e-001,-6.07614e-005,5.95500e+000,9.32734e-001,5.95500e+000,-2.88659e-003,5.95500e+000,-1.36460e-001,5.95500e+000,3.33733e-001,5.95500e+000,3.69873e-002
3.98000e-001,-6.41184e-005,5.97000e+000,9.30861e-001,5.97000e+000,-5.01520e-003,5.97000e+000,-1.34206e-001,5.97000e+000,3.39796e-001,5.97000e+000,3.69873e-002
3.99000e-001,-6.34470e-005,5.98500e+000,9.28238e-001,5.98500e+000,-6.20674e-003,5.98500e+000,-1.30883e-001,5.98500e+000,3.48147e-001,5.98500e+000,3.69873e-002
4.00000e-001,-6.54612e-005,6.00000e+000,9.26241e-001,6.00000e+000,-5.96850e-003,6.00000e+000,-1.28751e-001,6.00000e+000,3.54210e-001,6.00000e+000,3.69873e-002
4.01000e-001,-6.64683e-005,6.01500e+000,9.24086e-001,6.01500e+000,-5.55740e-003,6.01500e+000,-1.27186e-001,6.01500e+000,3.60357e-001,6.01500e+000,3.69873e-002
4.02000e-001,-6.47898e-005,6.03000e+000,9.20802e-001,6.03000e+000,-4.87668e-003,6.03000e+000,-1.25952e-001,6.03000e+000,3.69103e-001,6.03000e+000,3.69873e-002
4.03000e-001,-6.21042e-005,6.04500e+000,9.17984e-001,6.04500e+000,-4.20741e-003,6.04500e+000,-1.25369e-001,6.04500e+000,3.76258e-001,6.04500e+000,3.69873e-002
4.04000e-001,-6.31113e-005,6.06000e+000,9.14476e-001,6.06000e+000,-2.26484e-003,6.06000e+000,-1.25226e-001,6.06000e+000,3.84770e-001,6.06000e+000,3.69873e-002
4.05000e-001,-5.74044e-005,6.07500e+000,9.11861e-001,6.07500e+000,-8.59108e-005,6.07500e+000,-1.25952e-001,6.07500e+000,3.90698e-001,6.07500e+000,3.67432e-002
4.06000e-001,-6.47898e-005,6.09000e+000,9.08068e-001,6.09000e+000,3.20846e-003,6.09000e+000,-1.26552e-001,6.09000e+000,3.99232e-001,6.09000e+000,3.67432e-002
4.07000e-001,-5.33761e-005,6.10500e+000,9.05067e-001,6.10500e+000,5.01933e-003,6.10500e+000,-1.26278e-001,6.10500e+000,4.06056e-001,6.10500e+000,3.67432e-002
4.08000e-001,-5.40475e-005,6.12000e+000,9.01988e-001,6.12000e+000,6.38260e-003,6.12000e+000,-1.25731e-001,6.12000e+000,4.12999e-001,6.12000e+000,3.67432e-002
4.09000e-001,-5.20333e-005,6.13500e+000,8.97500e-001,6.13500e+000,8.41216e-003,6.13500e+000,-1.24187e-001,6.13500e+000,4.23085e-001,6.13500e+000,3.67432e-002
4.10000e-001,-5.47189e-005,6.15000e+000,8.94049e-001,6.15000e+000,1.06786e-002,6.15000e+000,-1.21983e-001,6.15000e+000,4.30909e-001,6.15000e+000,3.67432e-002
4.11000e-001,-5.94186e-005,6.16500e+000,8.89300e-001,6.16500e+000,1.32081e-002,6.16500e+000,-1.16935e-001,6.16500e+000,4.41924e-001,6.16500e+000,3.67432e-002
4.12000e-001,-5.53903e-005,6.18000e+000,8.85760e-001,6.18000e+000,1.39006e-002,6.18000e+000,-1.11648e-001,6.18000e+000,4.50301e-001,6.18000e+000,3.67432e-002
4.13000e-001,-5.80758e-005,6.19500e+000,8.81946e-001,6.19500e+000,1.43288e-002,6.19500e+000,-1.06247e-001,6.19500e+000,4.58995e-001,6.19500e+000,3.67432e-002
4.14000e-001,-5.47189e-005,6.21000e+000,8.76729e-001,6.21000e+000,1.40528e-002,6.21000e+000,-9.81742e-002,6.21000e+000,4.70647e-001,6.21000e+000,3.67432e-002
4.15000e-001,-5.67330e-005,6.22500e+000,8.73040e-001,6.22500e+000,1.25835e-002,6.22500e+000,-9.14206e-002,6.22500e+000,4.78836e-001,6.22500e+000,3.67432e-002
4.16000e-001,-5.87472e-005,6.24000e+000,8.68512e-001,6.24000e+000,1.02574e-002,6.24000e+000,-8.19798e-002,6.24000e+000,4.88733e-001,6.24000e+000,3.67432e-002
4.17000e-001,-5.80758e-005,6.25500e+000,8.65252e-001,6.25500e+000,8.89421e-003,6.25500e+000,-7.43600e-002,6.25500e+000,4.95709e-001,6.25500e+000,3.67432e-002
4.18000e-001,-5.67330e-005,6.27000e+000,8.60702e-001,6.27000e+000,8.39062e-003,6.27000e+000,-6.43589e-002,6.27000e+000,5.04952e-001,6.27000e+000,3.67432e-002
4.19000e-001,-5.97543e-005,6.28500e+000,8.56543e-001,6.28500e+000,9.34331e-003,6.28500e+000,-5.76769e-002,6.28500e+000,5.12755e-001,6.28500e+000,3.67432e-002
4.20000e-001,-6.34470e-005,6.30000e+000,8.51765e-001,6.30000e+000,1.15787e-002,6.30000e+000,-5.20593e-002,6.30000e+000,5.21198e-001,6.30000e+000,3.67432e-002
4.21000e-001,-6.34470e-005,6.31500e+000,8.45015e-001,6.31500e+000,1.53678e-002,6.31500e+000,-4.62950e-002,6.31500e+000,5.32507e-001,6.31500e+000,3.67432e-002
4.22000e-001,-6.07614e-005,6.33000e+000,8.39787e-001,6.33000e+000,1.75635e-002,6.33000e+000,-4.26592e-002,6.33000e+000,5.40944e-001,6.33000e+000,3.67432e-002
4.23000e-001,-6.04257e-005,6.34500e+000,8.32765e-001,6.34500e+000,2.00329e-002,6.34500e+000,-3.81035e-002,6.34500e+000,5.51941e-001,6.34500e+000,3.67432e-002
4.24000e-001,-6.34470e-005,6.36000e+000,8.27843e-001,6.36000e+000,2.20559e-002,6.36000e+000,-3.47166e-002,6.36000e+000,5.59432e-001,6.36000e+000,3.67432e-002
4.25000e-001,-6.44541e-005,6.37500e+000,8.23256e-001,6.37500e+000,2.43152e-002,6.37500e+000,-3.07069e-002,6.37500e+000,5.66305e-001,6.37500e+000,3.67432e-002
4.26000e-001,-6.21042e-005,6.39000e+000,8.17354e-001,6.39000e+000,2.75565e-002,6.39000e+000,-2.51439e-002,6.39000e+000,5.74918e-001,6.39000e+000,3.67432e-002
4.27000e-001,-6.44541e-005,6.40500e+000,8.12604e-001,6.40500e+000,2.98460e-002,6.40500e+000,-2.09004e-002,6.40500e+000,5.81671e-001,6.40500e+000,3.67432e-002
4.28000e-001,-6.00900e-005,6.42000e+000,8.05831e-001,6.42000e+000,3.18383e-002,6.42000e+000,-1.50452e-002,6.42000e+000,5.91094e-001,6.42000e+000,3.67432e-002
4.29000e-001,-5.47189e-005,6.43500e+000,8.00672e-001,6.43500e+000,3.36041e-002,6.43500e+000,-1.12097e-002,6.43500e+000,5.98052e-001,6.43500e+000,3.58887e-002
4.30000e-001,-5.84115e-005,6.45000e+000,7.95678e-001,6.45000e+000,3.58409e-002,6.45000e+000,-7.61641e-003,6.45000e+000,6.04609e-001,6.45000e+000,3.58887e-002
4.31000e-001,-5.40475e-005,6.46500e+000,7.89015e-001,6.46500e+000,3.88377e-002,6.46500e+000,-1.98133e-003,6.46500e+000,6.13141e-001,6.46500e+000,3.58887e-002
4.32000e-001,-5.53903e-005,6.48000e+000,7.85038e-001,6.48000e+000,4.09569e-002,6.48000e+000,2.26532e-003,6.48000e+000,6.18088e-001,6.48000e+000,3.58887e-002
4.33000e-001,-5.27047e-005,6.49500e+000,7.80478e-001,6.49500e+000,4.31991e-002,6.49500e+000,7.66983e-003,6.49500e+000,6.23641e-001,6.49500e+000,3.58887e-002
4.34000e-001,-5.67330e-005,6.51000e+000,7.78095e-001,6.51000e+000,4.47877e-002,6.51000e+000,1.12825e-002,6.51000e+000,6.26446e-001,6.51000e+000,3.58887e-002
4.35000e-001,-6.34470e-005,6.52500e+000,7.75925e-001,6.52500e+000,4.68000e-002,6.52500e+000,1.51224e-002,6.52500e+000,6.28904e-001,6.52500e+000,3.58887e-002
4.36000e-001,-6.21042e-005,6.54000e+000,7.74180e-001,6.54000e+000,4.89580e-002,6.54000e+000,1.69320e-002,6.54000e+000,6.30841e-001,6.54000e+000,3.58887e-002
4.37000e-001,-6.34470e-005,6.55500e+000,7.72552e-001,6.55500e+000,5.16448e-002,6.55500e+000,1.79026e-002,6.55500e+000,6.32595e-001,6.55500e+000,3.58887e-002
4.38000e-001,-5.80758e-005,6.57000e+000,7.70449e-001,6.57000e+000,5.65266e-002,6.57000e+000,1.71488e-002,6.57000e+000,6.34759e-001,6.57000e+000,3.58887e-002
4.39000e-001,-6.88182e-005,6.58500e+000,7.68952e-001,6.58500e+000,6.04421e-002,6.58500e+000,1.57535e-002,6.58500e+000,6.36248e-001,6.58500e+000,3.58887e-002
4.40000e-001,-5.87472e-005,6.60000e+000,7.66957e-001,6.60000e+000,6.57411e-002,6.60000e+000,1.43133e-002,6.60000e+000,6.38162e-001,6.60000e+000,3.58887e-002
4.41000e-001,-5.53903e-005,6.61500e+000,7.65181e-001,6.61500e+000,6.91343e-002,6.61500e+000,1.34121e-002,6.61500e+000,6.39953e-001,6.61500e+000,3.58887e-002
4.42000e-001,-5.50546e-005,6.63000e+000,7.63424e-001,6.63000e+000,7.15928e-002,6.63000e+000,1.24958e-002,6.63000e+000,6.41796e-001,6.63000e+000,3.58887e-002
4.43000e-001,-5.80758e-005,6.64500e+000,7.61515e-001,6.64500e+000,7.38423e-002,6.64500e+000,1.16857e-002,6.64500e+000,6.43822e-001,6.64500e+000,3.58887e-002
4.44000e-001,-5.33761e-005,6.66000e+000,7.60092e-001,6.66000e+000,7.49082e-002,6.66000e+000,1.18048e-002,6.66000e+000,6.45376e-001,6.66000e+000,3.58887e-002
4.45000e-001,-5.13619e-005,6.67500e+000,7.58328e-001,6.67500e+000,7.46070e-002,6.67500e+000,1.28630e-002,6.67500e+000,6.47462e-001,6.67500e+000,3.58887e-002
4.46000e-001,-5.40475e-005,6.69000e+000,7.56919e-001,6.69000e+000,7.42276e-002,6.69000e+000,1.40611e-002,6.69000e+000,6.49127e-001,6.69000e+000,3.55225e-002
4.47000e-001,-5.00191e-005,6.70500e+000,7.55412e-001,6.70500e+000,7.41721e-002,6.70500e+000,1.57420e-002,6.70500e+000,6.50848e-001,6.70500e+000,3.55225e-002
4.48000e-001,-5.84115e-005,6.72000e+000,7.54497e-001,6.72000e+000,7.40671e-002,6.72000e+000,1.65733e-002,6.72000e+000,6.51900e-001,6.72000e+000,3.55225e-002
4.49000e-001,-5.47189e-005,6.73500e+000,7.54077e-001,6.73500e+000,7.37470e-002,6.73500e+000,1.76005e-002,6.73500e+000,6.52395e-001,6.73500e+000,3.55225e-002
4.50000e-001,-5.67330e-005,6.75000e+000,7.53776e-001,6.75000e+000,7.36945e-002,6.75000e+000,1.90876e-002,6.75000e+000,6.52707e-001,6.75000e+000,3.55225e-002
4.51000e-001,-6.00900e-005,6.76500e+000,7.53671e-001,6.76500e+000,7.42369e-002,6.76500e+000,1.99235e-002,6.76500e+000,6.52742e-001,6.76500e+000,3.55225e-002
4.52000e-001,-6.27756e-005,6.78000e+000,7.53465e-001,6.78000e+000,7.46893e-002,6.78000e+000,2.09305e-002,6.78000e+000,6.52896e-001,6.78000e+000,3.55225e-002
4.53000e-001,-6.27756e-005,6.79500e+000,7.53087e-001,6.79500e+000,7.39550e-002,6.79500e+000,2.12699e-002,6.79500e+000,6.53406e-001,6.79500e+000,3.55225e-002
4.54000e-001,-6.14328e-005,6.81000e+000,7.53065e-001,6.81000e+000,7.36958e-002,6.81000e+000,2.08940e-002,6.81000e+000,6.53472e-001,6.81000e+000,3.55225e-002
4.55000e-001,-6.21042e-005,6.82500e+000,7.53294e-001,6.82500e+000,7.40192e-002,6.82500e+000,2.01374e-002,6.82500e+000,6.53195e-001,6.82500e+000,3.55225e-002
4.56000e-001,-5.84115e-005,6.84000e+000,7.53383e-001,6.84000e+000,7.44424e-002,6.84000e+000,1.94104e-002,6.84000e+000,6.53066e-001,6.84000e+000,3.55225e-002
4.57000e-001,-5.63973e-005,6.85500e+000,7.53409e-001,6.85500e+000,7.49331e-002,6.85500e+000,1.83045e-002,6.85500e+000,6.53012e-001,6.85500e+000,3.55225e-002
4.58000e-001,-5.94186e-005,6.87000e+000,7.53381e-001,6.87000e+000,7.53722e-002,6.87000e+000,1.72804e-002,6.87000e+000,6.53022e-001,6.87000e+000,3.55225e-002
4.59000e-001,-5.94186e-005,6.88500e+000,7.53388e-001,6.88500e+000,7.57423e-002,6.88500e+000,1.60198e-002,6.88500e+000,6.53004e-001,6.88500e+000,3.55225e-002
4.60000e-001,-5.53903e-005,6.90000e+000,7.53374e-001,6.90000e+000,7.62965e-002,6.90000e+000,1.38673e-002,6.90000e+000,6.53004e-001,6.90000e+000,3.55225e-002
4.61000e-001,-6.51255e-005,6.91500e+000,7.53366e-001,6.91500e+000,7.66497e-002,6.91500e+000,1.24488e-002,6.91500e+000,6.53000e-001,6.91500e+000,3.55225e-002
4.62000e-001,-7.01610e-005,6.93000e+000,7.53421e-001,6.93000e+000,7.67564e-002,6.93000e+000,1.09404e-002,6.93000e+000,6.52951e-001,6.93000e+000,3.55225e-002
4.63000e-001,-6.14328e-005,6.94500e+000,7.53382e-001,6.94500e+000,7.65069e-002,6.94500e+000,1.01231e-002,6.94500e+000,6.53038e-001,6.94500e+000,3.55225e-002
4.64000e-001,-5.84115e-005,6.96000e+000,7.53629e-001,6.96000e+000,7.58903e-002,6.96000e+000,9.66002e-003,6.96000e+000,6.52833e-001,6.96000e+000,3.55225e-002
4.65000e-001,-6.14328e-005,6.97500e+000,7.53610e-001,6.97500e+000,7.53652e-002,6.97500e+000,9.42417e-003,6.97500e+000,6.52919e-001,6.97500e+000,3.55225e-002
4.66000e-001,-6.91539e-005,6.99000e+000,7.53593e-001,6.99000e+000,7.47842e-002,6.99000e+000,9.00463e-003,6.99000e+000,6.53011e-001,6.99000e+000,3.55225e-002
4.67000e-001,-6.21042e-005,7.00500e+000,7.53743e-001,7.00500e+000,7.38584e-002,7.00500e+000,8.50004e-003,7.00500e+000,6.52950e-001,7.00500e+000,3.55225e-002
4.68000e-001,-6.14328e-005,7.02000e+000,7.53766e-001,7.02000e+000,7.33253e-002,7.02000e+000,8.26105e-003,7.02000e+000,6.52987e-001,7.02000e+000,3.55225e-002
4.69000e-001,-6.21042e-005,7.03500e+000,7.53913e-001,7.03500e+000,7.28183e-002,7.03500e+000,8.12273e-003,7.03500e+000,6.52875e-001,7.03500e+000,3.55225e-002
4.70000e-001,-6.91539e-005,7.05000e+000,7.54027e-001,7.05000e+000,7.25653e-002,7.05000e+000,7.93928e-003,7.05000e+000,6.52775e-001,7.05000e+000,3.55225e-002
4.71000e-001,-6.14328e-005,7.06500e+000,7.54076e-001,7.06500e+000,7.22784e-002,7.06500e+000,7.73607e-003,7.06500e+000,6.52752e-001,7.06500e+000,3.55225e-002
4.72000e-001,-5.80758e-005,7.08000e+000,7.54200e-001,7.08000e+000,7.22151e-002,7.08000e+000,7.65259e-003,7.08000e+000,6.52616e-001,7.08000e+000,3.55225e-002
4.73000e-001,-5.06905e-005,7.09500e+000,7.54299e-001,7.09500e+000,7.21933e-002,7.09500e+000,7.43757e-003,7.09500e+000,6.52507e-001,7.09500e+000,3.55225e-002
4.74000e-001,-5.94186e-005,7.11000e+000,7.54405e-001,7.11000e+000,7.20845e-002,7.11000e+000,7.00328e-003,7.11000e+000,6.52402e-001,7.11000e+000,3.55225e-002
4.75000e-001,-6.14328e-005,7.12500e+000,7.54579e-001,7.12500e+000,7.17297e-002,7.12500e+000,6.55215e-003,7.12500e+000,6.52244e-001,7.12500e+000,3.55225e-002
4.76000e-001,-6.31113e-005,7.14000e+000,7.54975e-001,7.14000e+000,7.10335e-002,7.14000e+000,6.09556e-003,7.14000e+000,6.51866e-001,7.14000e+000,3.55225e-002
4.77000e-001,-5.47189e-005,7.15500e+000,7.55225e-001,7.15500e+000,7.04985e-002,7.15500e+000,5.79683e-003,7.15500e+000,6.51638e-001,7.15500e+000,3.55225e-002
4.78000e-001,-5.23690e-005,7.17000e+000,7.55341e-001,7.17000e+000,7.00017e-002,7.17000e+000,5.52442e-003,7.17000e+000,6.51559e-001,7.17000e+000,3.55225e-002
4.79000e-001,-5.84115e-005,7.18500e+000,7.55459e-001,7.18500e+000,6.89631e-002,7.18500e+000,5.22651e-003,7.18500e+000,6.51535e-001,7.18500e+000,3.55225e-002
4.80000e-001,-5.84115e-005,7.20000e+000,7.55652e-001,7.20000e+000,6.81600e-002,7.20000e+000,4.85802e-003,7.20000e+000,6.51399e-001,7.20000e+000,3.55225e-002
4.81000e-001,-5.77401e-005,7.21500e+000,7.55800e-001,7.21500e+000,6.74033e-002,7.21500e+000,4.33660e-003,7.21500e+000,6.51309e-001,7.21500e+000,3.55225e-002
4.82000e-001,-5.47189e-005,7.23000e+000,7.55925e-001,7.23000e+000,6.69085e-002,7.23000e+000,3.84233e-003,7.23000e+000,6.51219e-001,7.23000e+000,3.55225e-002
4.83000e-001,-6.34470e-005,7.24500e+000,7.56173e-001,7.24500e+000,6.64055e-002,7.24500e+000,3.37899e-003,7.24500e+000,6.50985e-001,7.24500e+000,3.55225e-002
4.84000e-001,-5.70687e-005,7.26000e+000,7.56434e-001,7.26000e+000,6.55115e-002,7.26000e+000,2.75865e-003,7.26000e+000,6.50775e-001,7.26000e+000,3.55225e-002
4.85000e-001,-5.80758e-005,7.27500e+000,7.56586e-001,7.27500e+000,6.47255e-002,7.27500e+000,2.16369e-003,7.27500e+000,6.50680e-001,7.27500e+000,3.55225e-002
4.86000e-001,-6.34470e-005,7.29000e+000,7.57047e-001,7.29000e+000,6.23732e-002,7.29000e+000,1.49921e-003,7.29000e+000,6.50375e-001,7.29000e+000,3.55225e-002
4.87000e-001,-5.77401e-005,7.30500e+000,7.57532e-001,7.30500e+000,6.04592e-002,7.30500e+000,1.00929e-003,7.30500e+000,6.49992e-001,7.30500e+000,3.55225e-002
4.88000e-001,-6.61326e-005,7.32000e+000,7.57950e-001,7.32000e+000,5.88510e-002,7.32000e+000,8.61404e-004,7.32000e+000,6.49652e-001,7.32000e+000,3.55225e-002
4.89000e-001,-6.14328e-005,7.33500e+000,7.58363e-001,7.33500e+000,5.70875e-002,7.33500e+000,6.83106e-004,7.33500e+000,6.49328e-001,7.33500e+000,3.55225e-002
4.90000e-001,-6.07614e-005,7.35000e+000,7.58554e-001,7.35000e+000,5.61756e-002,7.35000e+000,5.39036e-004,7.35000e+000,6.49184e-001,7.35000e+000,3.55225e-002
4.91000e-001,-6.00900e-005,7.36500e+000,7.58656e-001,7.36500e+000,5.53117e-002,7.36500e+000,2.12753e-004,7.36500e+000,6.49139e-001,7.36500e+000,3.55225e-002
4.92000e-001,-6.10971e-005,7.38000e+000,7.58841e-001,7.38000e+000,5.48962e-002,7.38000e+000,-5.55787e-004,7.38000e+000,6.48958e-001,7.38000e+000,3.55225e-002
4.93000e-001,-6.00900e-005,7.39500e+000,7.59264e-001,7.39500e+000,5.44546e-002,7.39500e+000,-1.85669e-003,7.39500e+000,6.48498e-001,7.39500e+000,3.55225e-002
4.94000e-001,-5.94186e-005,7.41000e+000,7.59091e-001,7.41000e+000,5.30439e-002,7.41000e+000,-2.62871e-003,7.41000e+000,6.48814e-001,7.41000e+000,3.55225e-002
4.95000e-001,-5.70687e-005,7.42500e+000,7.58688e-001,7.42500e+000,5.21272e-002,7.42500e+000,-3.57018e-003,7.42500e+000,6.49356e-001,7.42500e+000,3.55225e-002
4.96000e-001,-5.47189e-005,7.44000e+000,7.58160e-001,7.44000e+000,5.09543e-002,7.44000e+000,-4.51163e-003,7.44000e+000,6.50059e-001,7.44000e+000,3.55225e-002
4.97000e-001,-5.27047e-005,7.45500e+000,7.58017e-001,7.45500e+000,4.98304e-002,7.45500e+000,-5.20736e-003,7.45500e+000,6.50308e-001,7.45500e+000,3.55225e-002
4.98000e-001,-4.53193e-005,7.47000e+000,7.58119e-001,7.47000e+000,4.75346e-002,7.47000e+000,-5.58083e-003,7.47000e+000,6.50357e-001,7.47000e+000,3.55225e-002
4.99000e-001,-5.13619e-005,7.48500e+000,7.58215e-001,7.48500e+000,4.58973e-002,7.48500e+000,-5.83550e-003,7.48500e+000,6.50361e-001,7.48500e+000,3.55225e-002
5.00000e-001,-6.21042e-005,7.50000e+000,7.58407e-001,7.50000e+000,4.36671e-002,7.50000e+000,-5.97074e-003,7.50000e+000,6.50289e-001,7.50000e+000,3.55225e-002
5.01000e-001,-5.94186e-005,7.51500e+000,7.58914e-001,7.51500e+000,3.98015e-002,7.51500e+000,-5.91002e-003,7.51500e+000,6.49947e-001,7.51500e+000,3.55225e-002
5.02000e-001,-5.27047e-005,7.53000e+000,7.59408e-001,7.53000e+000,3.63850e-002,7.53000e+000,-5.85394e-003,7.53000e+000,6.49570e-001,7.53000e+000,3.55225e-002
5.03000e-001,-6.24399e-005,7.54500e+000,7.60163e-001,7.54500e+000,3.14982e-002,7.54500e+000,-5.53301e-003,7.54500e+000,6.48945e-001,7.54500e+000,3.55225e-002
5.04000e-001,-6.07614e-005,7.56000e+000,7.60653e-001,7.56000e+000,2.85176e-002,7.56000e+000,-5.36462e-003,7.56000e+000,6.48510e-001,7.56000e+000,3.55225e-002
5.05000e-001,-5.97543e-005,7.57500e+000,7.61406e-001,7.57500e+000,2.61206e-002,7.57500e+000,-5.40560e-003,7.57500e+000,6.47727e-001,7.57500e+000,3.55225e-002
5.06000e-001,-6.10971e-005,7.59000e+000,7.61763e-001,7.59000e+000,2.52935e-002,7.59000e+000,-5.67932e-003,7.59000e+000,6.47337e-001,7.59000e+000,3.55225e-002
5.07000e-001,-5.94186e-005,7.60500e+000,7.61681e-001,7.60500e+000,2.52598e-002,7.60500e+000,-6.22738e-003,7.60500e+000,6.47429e-001,7.60500e+000,3.55225e-002
5.08000e-001,-6.07614e-005,7.62000e+000,7.61566e-001,7.62000e+000,2.59527e-002,7.62000e+000,-6.92050e-003,7.62000e+000,6.47531e-001,7.62000e+000,3.55225e-002
5.09000e-001,-5.77401e-005,7.63500e+000,7.61103e-001,7.63500e+000,2.65754e-002,7.63500e+000,-7.53805e-003,7.63500e+000,6.48043e-001,7.63500e+000,3.55225e-002
5.10000e-001,-5.53903e-005,7.65000e+000,7.59957e-001,7.65000e+000,2.66066e-002,7.65000e+000,-7.55516e-003,7.65000e+000,6.49385e-001,7.65000e+000,3.55225e-002
5.11000e-001,-5.40475e-005,7.66500e+000,7.58719e-001,7.66500e+000,2.68726e-002,7.66500e+000,-7.27922e-003,7.66500e+000,6.50823e-001,7.66500e+000,3.55225e-002
5.12000e-001,-5.60616e-005,7.68000e+000,7.57650e-001,7.68000e+000,2.62941e-002,7.68000e+000,-6.91437e-003,7.68000e+000,6.52095e-001,7.68000e+000,3.55225e-002
5.13000e-001,-5.40475e-005,7.69500e+000,7.56806e-001,7.69500e+000,2.46168e-002,7.69500e+000,-6.32154e-003,7.69500e+000,6.53145e-001,7.69500e+000,3.55225e-002
5.14000e-001,-6.24399e-005,7.71000e+000,7.56034e-001,7.71000e+000,2.35610e-002,7.71000e+000,-5.48972e-003,7.71000e+000,6.54086e-001,7.71000e+000,3.55225e-002
5.15000e-001,-6.04257e-005,7.72500e+000,7.54717e-001,7.72500e+000,2.13959e-002,7.72500e+000,-3.15159e-003,7.72500e+000,6.55694e-001,7.72500e+000,3.55225e-002
5.16000e-001,-6.10971e-005,7.74000e+000,7.53799e-001,7.74000e+000,1.92881e-002,7.74000e+000,-1.19357e-003,7.74000e+000,6.56821e-001,7.74000e+000,3.55225e-002
5.17000e-001,-5.30404e-005,7.75500e+000,7.52810e-001,7.75500e+000,1.75331e-002,7.75500e+000,9.37283e-004,7.75500e+000,6.58004e-001,7.75500e+000,3.55225e-002
5.18000e-001,-5.70687e-005,7.77000e+000,7.51369e-001,7.77000e+000,1.61921e-002,7.77000e+000,3.16471e-003,7.77000e+000,6.59676e-001,7.77000e+000,3.55225e-002
5.19000e-001,-5.33761e-005,7.78500e+000,7.50410e-001,7.78500e+000,1.59594e-002,7.78500e+000,4.48791e-003,7.78500e+000,6.60764e-001,7.78500e+000,3.55225e-002
5.20000e-001,-5.47189e-005,7.80000e+000,7.49193e-001,7.80000e+000,1.50875e-002,7.80000e+000,6.04880e-003,7.80000e+000,6.62153e-001,7.80000e+000,3.55225e-002
5.21000e-001,-5.94186e-005,7.81500e+000,7.48641e-001,7.81500e+000,1.44740e-002,7.81500e+000,6.95056e-003,7.81500e+000,6.62781e-001,7.81500e+000,3.55225e-002
5.22000e-001,-5.53903e-005,7.83000e+000,7.48497e-001,7.83000e+000,1.39478e-002,7.83000e+000,8.00385e-003,7.83000e+000,6.62943e-001,7.83000e+000,3.55225e-002
5.23000e-001,-5.27047e-005,7.84500e+000,7.48538e-001,7.84500e+000,1.36726e-002,7.84500e+000,8.36863e-003,7.84500e+000,6.62898e-001,7.84500e+000,3.55225e-002
5.24000e-001,-6.21042e-005,7.86000e+000,7.48776e-001,7.86000e+000,1.33368e-002,7.86000e+000,8.42718e-003,7.86000e+000,6.62636e-001,7.86000e+000,3.55225e-002
5.25000e-001,-5.80758e-005,7.87500e+000,7.49355e-001,7.87500e+000,1.27356e-002,7.87500e+000,8.80486e-003,7.87500e+000,6.61987e-001,7.87500e+000,3.55225e-002
5.26000e-001,-5.16976e-005,7.89000e+000,7.49658e-001,7.89000e+000,1.27025e-002,7.89000e+000,8.98386e-003,7.89000e+000,6.61642e-001,7.89000e+000,3.55225e-002
5.27000e-001,-6.21042e-005,7.90500e+000,7.49740e-001,7.90500e+000,1.27503e-002,7.90500e+000,8.87552e-003,7.90500e+000,6.61551e-001,7.90500e+000,3.55225e-002
5.28000e-001,-5.74044e-005,7.92000e+000,7.50096e-001,7.92000e+000,1.27597e-002,7.92000e+000,8.23741e-003,7.92000e+000,6.61155e-001,7.92000e+000,3.55225e-002
5.29000e-001,-5.77401e-005,7.93500e+000,7.50629e-001,7.93500e+000,1.28034e-002,7.93500e+000,7.66686e-003,7.93500e+000,6.60555e-001,7.93500e+000,3.55225e-002
5.30000e-001,-5.20333e-005,7.95000e+000,7.51190e-001,7.95000e+000,1.27455e-002,7.95000e+000,7.47185e-003,7.95000e+000,6.59921e-001,7.95000e+000,3.55225e-002
5.31000e-001,-5.87472e-005,7.96500e+000,7.51374e-001,7.96500e+000,1.30693e-002,7.96500e+000,7.58940e-003,7.96500e+000,6.59703e-001,7.96500e+000,3.55225e-002
5.32000e-001,-6.54612e-005,7.98000e+000,7.51710e-001,7.98000e+000,1.37219e-002,7.98000e+000,7.61905e-003,7.98000e+000,6.59307e-001,7.98000e+000,3.55225e-002
5.33000e-001,-5.87472e-005,7.99500e+000,7.52092e-001,7.99500e+000,1.42908e-002,7.99500e+000,7.45606e-003,7.99500e+000,6.58861e-001,7.99500e+000,3.55225e-002
5.34000e-001,-5.43832e-005,8.01000e+000,7.52357e-001,8.01000e+000,1.52065e-002,8.01000e+000,7.72928e-003,8.01000e+000,6.58534e-001,8.01000e+000,3.55225e-002
5.35000e-001,-4.96834e-005,8.02500e+000,7.52445e-001,8.02500e+000,1.57118e-002,8.02500e+000,8.44804e-003,8.02500e+000,6.58413e-001,8.02500e+000,3.55225e-002
5.36000e-001,-5.60616e-005,8.04000e+000,7.52535e-001,8.04000e+000,1.58750e-002,8.04000e+000,9.35582e-003,8.04000e+000,6.58294e-001,8.04000e+000,3.55225e-002
5.37000e-001,-4.96834e-005,8.05500e+000,7.52669e-001,8.05500e+000,1.53059e-002,8.05500e+000,1.03988e-002,8.05500e+000,6.58139e-001,8.05500e+000,3.55225e-002
5.38000e-001,-5.67330e-005,8.07000e+000,7.53266e-001,8.07000e+000,1.44374e-002,8.07000e+000,1.06931e-002,8.07000e+000,6.57471e-001,8.07000e+000,3.55225e-002
5.39000e-001,-5.74044e-005,8.08500e+000,7.54718e-001,8.08500e+000,1.28195e-002,8.08500e+000,1.05448e-002,8.08500e+000,6.55839e-001,8.08500e+000,3.55225e-002
5.40000e-001,-6.78111e-005,8.10000e+000,7.55939e-001,8.10000e+000,1.12970e-002,8.10000e+000,9.61043e-003,8.10000e+000,6.54475e-001,8.10000e+000,3.55225e-002
5.41000e-001,-7.18395e-005,8.11500e+000,7.57608e-001,8.11500e+000,9.03795e-003,8.11500e+000,7.78763e-003,8.11500e+000,6.52601e-001,8.11500e+000,3.55225e-002
5.42000e-001,-7.01610e-005,8.13000e+000,7.60373e-001,8.13000e+000,5.39041e-003,8.13000e+000,3.49995e-003,8.13000e+000,6.49455e-001,8.13000e+000,3.55225e-002
5.43000e-001,-5.74044e-005,8.14500e+000,7.62578e-001,8.14500e+000,1.84823e-003,8.14500e+000,-8.60474e-004,8.14500e+000,6.46893e-001,8.14500e+000,3.55225e-002
5.44000e-001,-5.47189e-005,8.16000e+000,7.65854e-001,8.16000e+000,-3.73423e-003,8.16000e+000,-7.67016e-003,8.16000e+000,6.42958e-001,8.16000e+000,3.55225e-002
5.45000e-001,-6.31113e-005,8.17500e+000,7.68103e-001,8.17500e+000,-8.55663e-003,8.17500e+000,-1.30556e-002,8.17500e+000,6.40136e-001,8.17500e+000,3.54004e-002
5.46000e-001,-5.97543e-005,8.19000e+000,7.70381e-001,8.19000e+000,-1.36968e-002,8.19000e+000,-1.87930e-002,8.19000e+000,6.37160e-001,8.19000e+000,3.52783e-002
5.47000e-001,-5.67330e-005,8.20500e+000,7.73534e-001,8.20500e+000,-2.15845e-002,8.20500e+000,-2.68042e-002,8.20500e+000,6.32819e-001,8.20500e+000,3.52783e-002
5.48000e-001,-5.87472e-005,8.22000e+000,7.75844e-001,8.22000e+000,-2.82012e-002,8.22000e+000,-3.35772e-002,8.22000e+000,6.29399e-001,8.22000e+000,3.52783e-002
5.49000e-001,-6.54612e-005,8.23500e+000,7.78906e-001,8.23500e+000,-3.73993e-002,8.23500e+000,-4.35470e-002,8.23500e+000,6.24508e-001,8.23500e+000,3.52783e-002
5.50000e-001,-5.67330e-005,8.25000e+000,7.81034e-001,8.25000e+000,-4.45059e-002,8.25000e+000,-5.19119e-002,8.25000e+000,6.20733e-001,8.25000e+000,3.52783e-002
5.51000e-001,-6.14328e-005,8.26500e+000,7.83369e-001,8.26500e+000,-5.48201e-002,8.26500e+000,-6.31357e-002,8.26500e+000,6.15907e-001,8.26500e+000,3.52783e-002
5.52000e-001,-6.14328e-005,8.28000e+000,7.84963e-001,8.28000e+000,-6.34439e-002,8.28000e+000,-7.11462e-002,8.28000e+000,6.12165e-001,8.28000e+000,3.52783e-002
5.53000e-001,-5.67330e-005,8.29500e+000,7.86579e-001,8.29500e+000,-7.30865e-002,8.29500e+000,-7.87464e-002,8.29500e+000,6.08071e-001,8.29500e+000,3.54004e-002
5.54000e-001,-6.24399e-005,8.31000e+000,7.88621e-001,8.31000e+000,-8.83521e-002,8.31000e+000,-8.82051e-002,8.31000e+000,6.02072e-001,8.31000e+000,3.54004e-002
5.55000e-001,-7.01610e-005,8.32500e+000,7.89762e-001,8.32500e+000,-1.01279e-001,8.32500e+000,-9.53394e-002,8.32500e+000,5.97435e-001,8.32500e+000,3.54004e-002
5.56000e-001,-6.34470e-005,8.34000e+000,7.90941e-001,8.34000e+000,-1.18190e-001,8.34000e+000,-1.05303e-001,8.34000e+000,5.91062e-001,8.34000e+000,3.54004e-002
5.57000e-001,-6.54612e-005,8.35500e+000,7.91545e-001,8.35500e+000,-1.30095e-001,8.35500e+000,-1.13543e-001,8.35500e+000,5.86207e-001,8.35500e+000,3.54004e-002
5.58000e-001,-6.34470e-005,8.37000e+000,7.91993e-001,8.37000e+000,-1.41777e-001,8.37000e+000,-1.22343e-001,8.37000e+000,5.81101e-001,8.37000e+000,3.52783e-002
5.59000e-001,-5.97543e-005,8.38500e+000,7.92040e-001,8.38500e+000,-1.57419e-001,8.38500e+000,-1.34733e-001,8.38500e+000,5.74228e-001,8.38500e+000,3.52783e-002
5.60000e-001,-5.30404e-005,8.40000e+000,7.91590e-001,8.40000e+000,-1.69451e-001,8.40000e+000,-1.44073e-001,8.40000e+000,5.69134e-001,8.40000e+000,3.52783e-002
5.61000e-001,-5.40475e-005,8.41500e+000,7.90418e-001,8.41500e+000,-1.85487e-001,8.41500e+000,-1.55979e-001,8.41500e+000,5.62587e-001,8.41500e+000,3.52783e-002
5.62000e-001,-6.10971e-005,8.43000e+000,7.89242e-001,8.43000e+000,-1.97278e-001,8.43000e+000,-1.64945e-001,8.43000e+000,5.57648e-001,8.43000e+000,3.52783e-002
5.63000e-001,-5.77401e-005,8.44500e+000,7.87792e-001,8.44500e+000,-2.13306e-001,8.44500e+000,-1.74919e-001,8.44500e+000,5.50714e-001,8.44500e+000,3.51563e-002
5.64000e-001,-5.80758e-005,8.46000e+000,7.87055e-001,8.46000e+000,-2.25587e-001,8.46000e+000,-1.82021e-001,8.46000e+000,5.44539e-001,8.46000e+000,3.51563e-002
5.65000e-001,-5.53903e-005,8.47500e+000,7.86416e-001,8.47500e+000,-2.37179e-001,8.47500e+000,-1.88991e-001,8.47500e+000,5.38124e-001,8.47500e+000,3.51563e-002
5.66000e-001,-5.80758e-005,8.49000e+000,7.86605e-001,8.49000e+000,-2.52201e-001,8.49000e+000,-1.97739e-001,8.49000e+000,5.27774e-001,8.49000e+000,3.51563e-002
5.67000e-001,-5.40475e-005,8.50500e+000,7.87357e-001,8.50500e+000,-2.62688e-001,8.50500e+000,-2.04391e-001,8.50500e+000,5.18929e-001,8.50500e+000,3.51563e-002
5.68000e-001,-5.43832e-005,8.52000e+000,7.88043e-001,8.52000e+000,-2.75497e-001,8.52000e+000,-2.13481e-001,8.52000e+000,5.07459e-001,8.52000e+000,3.51563e-002
5.69000e-001,-5.87472e-005,8.53500e+000,7.88027e-001,8.53500e+000,-2.84997e-001,8.53500e+000,-2.19579e-001,8.53500e+000,4.99574e-001,8.53500e+000,3.52783e-002
5.70000e-001,-5.13619e-005,8.55000e+000,7.87578e-001,8.55000e+000,-2.94606e-001,8.55000e+000,-2.25114e-001,8.55000e+000,4.92190e-001,8.55000e+000,3.52783e-002
5.71000e-001,-5.67330e-005,8.56500e+000,7.86796e-001,8.56500e+000,-3.07835e-001,8.56500e+000,-2.31421e-001,8.56500e+000,4.82321e-001,8.56500e+000,3.52783e-002
5.72000e-001,-6.41184e-005,8.58000e+000,7.86163e-001,8.58000e+000,-3.17862e-001,8.58000e+000,-2.36308e-001,8.58000e+000,4.74415e-001,8.58000e+000,3.52783e-002
5.73000e-001,-6.34470e-005,8.59500e+000,7.85532e-001,8.59500e+000,-3.30309e-001,8.59500e+000,-2.43050e-001,8.59500e+000,4.63425e-001,8.59500e+000,3.52783e-002
5.74000e-001,-5.87472e-005,8.61000e+000,7.85358e-001,8.61000e+000,-3.39133e-001,8.61000e+000,-2.48704e-001,8.61000e+000,4.54254e-001,8.61000e+000,3.54004e-002
5.75000e-001,-6.41184e-005,8.62500e+000,7.85279e-001,8.62500e+000,-3.47532e-001,8.62500e+000,-2.54992e-001,8.62500e+000,4.44451e-001,8.62500e+000,3.54004e-002
5.76000e-001,-6.14328e-005,8.64000e+000,7.84767e-001,8.64000e+000,-3.59657e-001,8.64000e+000,-2.63262e-001,8.64000e+000,4.30674e-001,8.64000e+000,3.54004e-002
5.77000e-001,-6.17685e-005,8.65500e+000,7.84306e-001,8.65500e+000,-3.68678e-001,8.65500e+000,-2.69356e-001,8.65500e+000,4.19984e-001,8.65500e+000,3.54004e-002
5.78000e-001,-5.94186e-005,8.67000e+000,7.83744e-001,8.67000e+000,-3.79102e-001,8.67000e+000,-2.77612e-001,8.67000e+000,4.06149e-001,8.67000e+000,3.54004e-002
5.79000e-001,-5.57259e-005,8.68500e+000,7.83073e-001,8.68500e+000,-3.86757e-001,8.68500e+000,-2.83133e-001,8.68500e+000,3.96297e-001,8.68500e+000,3.54004e-002
5.80000e-001,-6.21042e-005,8.70000e+000,7.82458e-001,8.70000e+000,-3.96759e-001,8.70000e+000,-2.90052e-001,8.70000e+000,3.82376e-001,8.70000e+000,3.54004e-002
5.81000e-001,-6.44541e-005,8.71500e+000,7.81690e-001,8.71500e+000,-4.04292e-001,8.71500e+000,-2.95063e-001,8.71500e+000,3.72084e-001,8.71500e+000,3.54004e-002
5.82000e-001,-5.67330e-005,8.73000e+000,7.81076e-001,8.73000e+000,-4.12181e-001,8.73000e+000,-2.99183e-001,8.73000e+000,3.61270e-001,8.73000e+000,3.54004e-002
5.83000e-001,-6.00900e-005,8.74500e+000,7.80474e-001,8.74500e+000,-4.22541e-001,8.74500e+000,-3.03337e-001,8.74500e+000,3.46851e-001,8.74500e+000,3.54004e-002
5.84000e-001,-6.24399e-005,8.76000e+000,7.79683e-001,8.76000e+000,-4.30260e-001,8.76000e+000,-3.06045e-001,8.76000e+000,3.36610e-001,8.76000e+000,3.54004e-002
5.85000e-001,-5.80758e-005,8.77500e+000,7.78377e-001,8.77500e+000,-4.38955e-001,8.77500e+000,-3.10475e-001,8.77500e+000,3.24119e-001,8.77500e+000,3.54004e-002
5.86000e-001,-6.24399e-005,8.79000e+000,7.77418e-001,8.79000e+000,-4.44586e-001,8.79000e+000,-3.14276e-001,8.79000e+000,3.14954e-001,8.79000e+000,3.54004e-002
5.87000e-001,-6.07614e-005,8.80500e+000,7.76421e-001,8.80500e+000,-4.49510e-001,8.80500e+000,-3.18274e-001,8.80500e+000,3.06288e-001,8.80500e+000,3.54004e-002
5.88000e-001,-6.54612e-005,8.82000e+000,7.74986e-001,8.82000e+000,-4.55346e-001,8.82000e+000,-3.22894e-001,8.82000e+000,2.96304e-001,8.82000e+000,3.54004e-002
5.89000e-001,-6.21042e-005,8.83500e+000,7.74105e-001,8.83500e+000,-4.58488e-001,8.83500e+000,-3.26233e-001,8.83500e+000,2.90038e-001,8.83500e+000,3.54004e-002
5.90000e-001,-5.84115e-005,8.85000e+000,7.72600e-001,8.85000e+000,-4.61281e-001,8.85000e+000,-3.31737e-001,8.85000e+000,2.83301e-001,8.85000e+000,3.54004e-002
5.91000e-001,-6.74754e-005,8.86500e+000,7.71621e-001,8.86500e+000,-4.62962e-001,8.86500e+000,-3.36110e-001,8.86500e+000,2.78024e-001,8.86500e+000,3.54004e-002
5.92000e-001,-6.00900e-005,8.88000e+000,7.70734e-001,8.88000e+000,-4.65062e-001,8.88000e+000,-3.41351e-001,8.88000e+000,2.70491e-001,8.88000e+000,3.54004e-002
5.93000e-001,-6.41184e-005,8.89500e+000,7.70187e-001,8.89500e+000,-4.66500e-001,8.89500e+000,-3.44791e-001,8.89500e+000,2.65159e-001,8.89500e+000,3.54004e-002
5.94000e-001,-6.41184e-005,8.91000e+000,7.69596e-001,8.91000e+000,-4.67593e-001,8.91000e+000,-3.47947e-001,8.91000e+000,2.60789e-001,8.91000e+000,3.54004e-002
5.95000e-001,-5.97543e-005,8.92500e+000,7.68797e-001,8.92500e+000,-4.68398e-001,8.92500e+000,-3.51790e-001,8.92500e+000,2.56509e-001,8.92500e+000,3.56445e-002
5.96000e-001,-5.33761e-005,8.94000e+000,7.68286e-001,8.94000e+000,-4.69015e-001,8.94000e+000,-3.53770e-001,8.94000e+000,2.54182e-001,8.94000e+000,3.55225e-002
5.97000e-001,-5.53903e-005,8.95500e+000,7.67817e-001,8.95500e+000,-4.70125e-001,8.95500e+000,-3.54918e-001,8.95500e+000,2.51937e-001,8.95500e+000,3.55225e-002
5.98000e-001,-5.53903e-005,8.97000e+000,7.67331e-001,8.97000e+000,-4.70947e-001,8.97000e+000,-3.55644e-001,8.97000e+000,2.50858e-001,8.97000e+000,3.55225e-002
5.99000e-001,-5.30404e-005,8.98500e+000,7.67045e-001,8.98500e+000,-4.71822e-001,8.98500e+000,-3.55784e-001,8.98500e+000,2.49890e-001,8.98500e+000,3.55225e-002
6.00000e-001,-4.76692e-005,9.00000e+000,7.66670e-001,9.00000e+000,-4.73139e-001,9.00000e+000,-3.55694e-001,9.00000e+000,2.48674e-001,9.00000e+000,3.55225e-002
6.01000e-001,-5.27047e-005,9.01500e+000,7.66393e-001,9.01500e+000,-4.73797e-001,9.01500e+000,-3.55827e-001,9.01500e+000,2.48083e-001,9.01500e+000,3.55225e-002
6.02000e-001,-5.84115e-005,9.03000e+000,7.66067e-001,9.03000e+000,-4.74757e-001,9.03000e+000,-3.55921e-001,9.03000e+000,2.47117e-001,9.03000e+000,3.55225e-002
6.03000e-001,-5.80758e-005,9.04500e+000,7.65671e-001,9.04500e+000,-4.75536e-001,9.04500e+000,-3.56183e-001,9.04500e+000,2.46467e-001,9.04500e+000,3.55225e-002
6.04000e-001,-6.21042e-005,9.06000e+000,7.65288e-001,9.06000e+000,-4.76173e-001,9.06000e+000,-3.56496e-001,9.06000e+000,2.45975e-001,9.06000e+000,3.55225e-002
6.05000e-001,-5.77401e-005,9.07500e+000,7.64683e-001,9.07500e+000,-4.76751e-001,9.07500e+000,-3.57232e-001,9.07500e+000,2.45671e-001,9.07500e+000,3.55225e-002
6.06000e-001,-5.80758e-005,9.09000e+000,7.64146e-001,9.09000e+000,-4.76905e-001,9.09000e+000,-3.58202e-001,9.09000e+000,2.45627e-001,9.09000e+000,3.55225e-002
6.07000e-001,-6.27756e-005,9.10500e+000,7.63606e-001,9.10500e+000,-4.77213e-001,9.10500e+000,-3.59137e-001,9.10500e+000,2.45344e-001,9.10500e+000,3.55225e-002
6.08000e-001,-5.74044e-005,9.12000e+000,7.63218e-001,9.12000e+000,-4.77659e-001,9.12000e+000,-3.59795e-001,9.12000e+000,2.44720e-001,9.12000e+000,3.55225e-002
6.09000e-001,-4.90120e-005,9.13500e+000,7.62647e-001,9.13500e+000,-4.78304e-001,9.13500e+000,-3.60758e-001,9.13500e+000,2.43821e-001,9.13500e+000,3.55225e-002
6.10000e-001,-5.33761e-005,9.15000e+000,7.62153e-001,9.15000e+000,-4.78706e-001,9.15000e+000,-3.61594e-001,9.15000e+000,2.43338e-001,9.15000e+000,3.55225e-002
6.11000e-001,-5.87472e-005,9.16500e+000,7.61924e-001,9.16500e+000,-4.79522e-001,9.16500e+000,-3.61861e-001,9.16500e+000,2.42048e-001,9.16500e+000,3.55225e-002
6.12000e-001,-5.74044e-005,9.18000e+000,7.61738e-001,9.18000e+000,-4.80632e-001,9.18000e+000,-3.61937e-001,9.18000e+000,2.40313e-001,9.18000e+000,3.55225e-002
6.13000e-001,-5.90829e-005,9.19500e+000,7.61757e-001,9.19500e+000,-4.81171e-001,9.19500e+000,-3.61911e-001,9.19500e+000,2.39210e-001,9.19500e+000,3.55225e-002
6.14000e-001,-5.70687e-005,9.21000e+000,7.62297e-001,9.21000e+000,-4.81110e-001,9.21000e+000,-3.61277e-001,9.21000e+000,2.38569e-001,9.21000e+000,3.55225e-002
6.15000e-001,-6.61326e-005,9.22500e+000,7.62987e-001,9.22500e+000,-4.80938e-001,9.22500e+000,-3.60030e-001,9.22500e+000,2.38597e-001,9.22500e+000,3.55225e-002
6.16000e-001,-5.74044e-005,9.24000e+000,7.63574e-001,9.24000e+000,-4.81021e-001,9.24000e+000,-3.58963e-001,9.24000e+000,2.38158e-001,9.24000e+000,3.55225e-002
6.17000e-001,-5.94186e-005,9.25500e+000,7.64637e-001,9.25500e+000,-4.81055e-001,9.25500e+000,-3.57142e-001,9.25500e+000,2.37414e-001,9.25500e+000,3.55225e-002
6.18000e-001,-6.07614e-005,9.27000e+000,7.65459e-001,9.27000e+000,-4.80843e-001,9.27000e+000,-3.55998e-001,9.27000e+000,2.36915e-001,9.27000e+000,3.55225e-002
6.19000e-001,-6.10971e-005,9.28500e+000,7.66346e-001,9.28500e+000,-4.80804e-001,9.28500e+000,-3.54847e-001,9.28500e+000,2.35849e-001,9.28500e+000,3.55225e-002
6.20000e-001,-6.14328e-005,9.30000e+000,7.66917e-001,9.30000e+000,-4.80705e-001,9.30000e+000,-3.54140e-001,9.30000e+000,2.35256e-001,9.30000e+000,3.55225e-002
6.21000e-001,-6.47898e-005,9.31500e+000,7.67684e-001,9.31500e+000,-4.80828e-001,9.31500e+000,-3.52974e-001,9.31500e+000,2.34253e-001,9.31500e+000,3.55225e-002
6.22000e-001,-6.74754e-005,9.33000e+000,7.68208e-001,9.33000e+000,-4.80929e-001,9.33000e+000,-3.52065e-001,9.33000e+000,2.33697e-001,9.33000e+000,3.55225e-002
6.23000e-001,-6.34470e-005,9.34500e+000,7.68677e-001,9.34500e+000,-4.81281e-001,9.34500e+000,-3.50970e-001,9.34500e+000,2.33074e-001,9.34500e+000,3.55225e-002
6.24000e-001,-5.97543e-005,9.36000e+000,7.69397e-001,9.36000e+000,-4.81547e-001,9.36000e+000,-3.49531e-001,9.36000e+000,2.32311e-001,9.36000e+000,3.55225e-002
6.25000e-001,-5.74044e-005,9.37500e+000,7.69761e-001,9.37500e+000,-4.81687e-001,9.37500e+000,-3.48831e-001,9.37500e+000,2.31868e-001,9.37500e+000,3.55225e-002
6.26000e-001,-6.57969e-005,9.39000e+000,7.70238e-001,9.39000e+000,-4.81949e-001,9.39000e+000,-3.48015e-001,9.39000e+000,2.30962e-001,9.39000e+000,3.55225e-002
6.27000e-001,-6.34470e-005,9.40500e+000,7.70496e-001,9.40500e+000,-4.82224e-001,9.40500e+000,-3.47675e-001,9.40500e+000,2.30037e-001,9.40500e+000,3.55225e-002
6.28000e-001,-6.81468e-005,9.42000e+000,7.70625e-001,9.42000e+000,-4.82138e-001,9.42000e+000,-3.47832e-001,9.42000e+000,2.29549e-001,9.42000e+000,3.55225e-002
6.29000e-001,-6.34470e-005,9.43500e+000,7.70859e-001,9.43500e+000,-4.81830e-001,9.43500e+000,-3.48009e-001,9.43500e+000,2.29143e-001,9.43500e+000,3.55225e-002
6.30000e-001,-6.27756e-005,9.45000e+000,7.71100e-001,9.45000e+000,-4.81864e-001,9.45000e+000,-3.47621e-001,9.45000e+000,2.28850e-001,9.45000e+000,3.55225e-002
6.31000e-001,-6.54612e-005,9.46500e+000,7.71531e-001,9.46500e+000,-4.81993e-001,9.46500e+000,-3.46578e-001,9.46500e+000,2.28705e-001,9.46500e+000,3.55225e-002
6.32000e-001,-6.64683e-005,9.48000e+000,7.71888e-001,9.48000e+000,-4.82281e-001,9.48000e+000,-3.45425e-001,9.48000e+000,2.28641e-001,9.48000e+000,3.55225e-002
6.33000e-001,-6.47898e-005,9.49500e+000,7.72186e-001,9.49500e+000,-4.82545e-001,9.49500e+000,-3.44555e-001,9.49500e+000,2.28390e-001,9.49500e+000,3.55225e-002
6.34000e-001,-5.50546e-005,9.51000e+000,7.72392e-001,9.51000e+000,-4.82637e-001,9.51000e+000,-3.43935e-001,9.51000e+000,2.28432e-001,9.51000e+000,3.55225e-002
6.35000e-001,-5.33761e-005,9.52500e+000,7.72523e-001,9.52500e+000,-4.82675e-001,9.52500e+000,-3.43511e-001,9.52500e+000,2.28548e-001,9.52500e+000,3.55225e-002
6.36000e-001,-5.13619e-005,9.54000e+000,7.72802e-001,9.54000e+000,-4.82372e-001,9.54000e+000,-3.42961e-001,9.54000e+000,2.29066e-001,9.54000e+000,3.55225e-002
6.37000e-001,-5.16976e-005,9.55500e+000,7.72963e-001,9.55500e+000,-4.82083e-001,9.55500e+000,-3.42650e-001,9.55500e+000,2.29597e-001,9.55500e+000,3.55225e-002
6.38000e-001,-5.16976e-005,9.57000e+000,7.73423e-001,9.57000e+000,-4.81487e-001,9.57000e+000,-3.41921e-001,9.57000e+000,2.30385e-001,9.57000e+000,3.55225e-002
6.39000e-001,-5.20333e-005,9.58500e+000,7.73992e-001,9.58500e+000,-4.80704e-001,9.58500e+000,-3.40993e-001,9.58500e+000,2.31481e-001,9.58500e+000,3.55225e-002
6.40000e-001,-5.27047e-005,9.60000e+000,7.75053e-001,9.60000e+000,-4.79470e-001,9.60000e+000,-3.39408e-001,9.60000e+000,2.32815e-001,9.60000e+000,3.55225e-002
6.41000e-001,-5.94186e-005,9.61500e+000,7.76839e-001,9.61500e+000,-4.77723e-001,9.61500e+000,-3.35956e-001,9.61500e+000,2.35447e-001,9.61500e+000,3.55225e-002
6.42000e-001,-5.40475e-005,9.63000e+000,7.78344e-001,9.63000e+000,-4.75872e-001,9.63000e+000,-3.34080e-001,9.63000e+000,2.36888e-001,9.63000e+000,3.55225e-002
6.43000e-001,-5.77401e-005,9.64500e+000,7.79891e-001,9.64500e+000,-4.73073e-001,9.64500e+000,-3.32799e-001,9.64500e+000,2.39199e-001,9.64500e+000,3.55225e-002
6.44000e-001,-5.40475e-005,9.66000e+000,7.80670e-001,9.66000e+000,-4.70897e-001,9.66000e+000,-3.32407e-001,9.66000e+000,2.41485e-001,9.66000e+000,3.55225e-002
6.45000e-001,-5.53903e-005,9.67500e+000,7.81235e-001,9.67500e+000,-4.69228e-001,9.67500e+000,-3.31239e-001,9.67500e+000,2.44493e-001,9.67500e+000,3.55225e-002
6.46000e-001,-5.37118e-005,9.69000e+000,7.81768e-001,9.69000e+000,-4.67578e-001,9.69000e+000,-3.28223e-001,9.69000e+000,2.49957e-001,9.69000e+000,3.55225e-002
6.47000e-001,-5.27047e-005,9.70500e+000,7.82007e-001,9.70500e+000,-4.66776e-001,9.70500e+000,-3.25053e-001,9.70500e+000,2.54806e-001,9.70500e+000,3.55225e-002
6.48000e-001,-5.13619e-005,9.72000e+000,7.82495e-001,9.72000e+000,-4.65871e-001,9.72000e+000,-3.19877e-001,9.72000e+000,2.61428e-001,9.72000e+000,3.55225e-002
6.49000e-001,-5.06905e-005,9.73500e+000,7.82940e-001,9.73500e+000,-4.64831e-001,9.73500e+000,-3.16171e-001,9.73500e+000,2.66406e-001,9.73500e+000,3.55225e-002
6.50000e-001,-5.80758e-005,9.75000e+000,7.83433e-001,9.75000e+000,-4.63013e-001,9.75000e+000,-3.11904e-001,9.75000e+000,2.73070e-001,9.75000e+000,3.55225e-002
6.51000e-001,-5.27047e-005,9.76500e+000,7.83977e-001,9.76500e+000,-4.60812e-001,9.76500e+000,-3.09287e-001,9.76500e+000,2.78161e-001,9.76500e+000,3.55225e-002
6.52000e-001,-5.60616e-005,9.78000e+000,7.84594e-001,9.78000e+000,-4.58027e-001,9.78000e+000,-3.07168e-001,9.78000e+000,2.83322e-001,9.78000e+000,3.55225e-002
6.53000e-001,-5.80758e-005,9.79500e+000,7.85533e-001,9.79500e+000,-4.53507e-001,9.79500e+000,-3.04903e-001,9.79500e+000,2.90349e-001,9.79500e+000,3.55225e-002
6.54000e-001,-6.27756e-005,9.81000e+000,7.86411e-001,9.81000e+000,-4.49321e-001,9.81000e+000,-3.03215e-001,9.81000e+000,2.96189e-001,9.81000e+000,3.55225e-002
6.55000e-001,-5.33761e-005,9.82500e+000,7.88010e-001,9.82500e+000,-4.43124e-001,9.82500e+000,-3.00049e-001,9.82500e+000,3.04385e-001,9.82500e+000,3.55225e-002
6.56000e-001,-5.27047e-005,9.84000e+000,7.89236e-001,9.84000e+000,-4.37778e-001,9.84000e+000,-2.97615e-001,9.84000e+000,3.11258e-001,9.84000e+000,3.55225e-002
6.57000e-001,-6.31113e-005,9.85500e+000,7.90807e-001,9.85500e+000,-4.31949e-001,9.85500e+000,-2.95066e-001,9.85500e+000,3.17772e-001,9.85500e+000,3.58887e-002
6.58000e-001,-5.74044e-005,9.87000e+000,7.93176e-001,9.87000e+000,-4.23461e-001,9.87000e+000,-2.91444e-001,9.87000e+000,3.26515e-001,9.87000e+000,3.56445e-002
6.59000e-001,-5.94186e-005,9.88500e+000,7.94745e-001,9.88500e+000,-4.16580e-001,9.88500e+000,-2.88508e-001,9.88500e+000,3.34069e-001,9.88500e+000,3.56445e-002
6.60000e-001,-5.60616e-005,9.90000e+000,7.96340e-001,9.90000e+000,-4.09592e-001,9.90000e+000,-2.84296e-001,9.90000e+000,3.42421e-001,9.90000e+000,3.56445e-002
6.61000e-001,-6.21042e-005,9.91500e+000,7.98182e-001,9.91500e+000,-4.00951e-001,9.91500e+000,-2.76801e-001,9.91500e+000,3.54293e-001,9.91500e+000,3.56445e-002
6.62000e-001,-5.20333e-005,9.93000e+000,7.99220e-001,9.93000e+000,-3.94917e-001,9.93000e+000,-2.69690e-001,9.93000e+000,3.64079e-001,9.93000e+000,3.56445e-002
6.63000e-001,-5.84115e-005,9.94500e+000,8.00622e-001,9.94500e+000,-3.86574e-001,9.94500e+000,-2.58749e-001,9.94500e+000,3.77640e-001,9.94500e+000,3.56445e-002
6.64000e-001,-6.34470e-005,9.96000e+000,8.01629e-001,9.96000e+000,-3.79490e-001,9.96000e+000,-2.50145e-001,9.96000e+000,3.88333e-001,9.96000e+000,3.57666e-002
6.65000e-001,-6.47898e-005,9.97500e+000,8.03150e-001,9.97500e+000,-3.68124e-001,9.97500e+000,-2.38786e-001,9.97500e+000,4.03005e-001,9.97500e+000,3.57666e-002
6.66000e-001,-5.94186e-005,9.99000e+000,8.04378e-001,9.99000e+000,-3.58611e-001,9.99000e+000,-2.30720e-001,9.99000e+000,4.13690e-001,9.99000e+000,3.57666e-002
6.67000e-001,-5.97543e-005,1.00050e+001,8.05657e-001,1.00050e+001,-3.45707e-001,1.00050e+001,-2.20498e-001,1.00050e+001,4.27528e-001,1.00050e+001,3.57666e-002
6.68000e-001,-6.44541e-005,1.00200e+001,8.06337e-001,1.00200e+001,-3.35596e-001,1.00200e+001,-2.12842e-001,1.00200e+001,4.38053e-001,1.00200e+001,3.57666e-002
6.69000e-001,-6.14328e-005,1.00350e+001,8.07256e-001,1.00350e+001,-3.25159e-001,1.00350e+001,-2.04339e-001,1.00350e+001,4.48164e-001,1.00350e+001,3.62549e-002
6.70000e-001,-6.88182e-005,1.00500e+001,8.09144e-001,1.00500e+001,-3.10240e-001,1.00500e+001,-1.90667e-001,1.00500e+001,4.61171e-001,1.00500e+001,3.62549e-002
6.71000e-001,-6.74754e-005,1.00650e+001,8.11108e-001,1.00650e+001,-2.97821e-001,1.00650e+001,-1.79916e-001,1.00650e+001,4.70140e-001,1.00650e+001,3.62549e-002
6.72000e-001,-6.27756e-005,1.00800e+001,8.13557e-001,1.00800e+001,-2.80902e-001,1.00800e+001,-1.67317e-001,1.00800e+001,4.80851e-001,1.00800e+001,3.62549e-002
6.73000e-001,-5.87472e-005,1.00950e+001,8.14677e-001,1.00950e+001,-2.66675e-001,1.00950e+001,-1.57253e-001,1.00950e+001,4.90356e-001,1.00950e+001,3.62549e-002
6.74000e-001,-6.21042e-005,1.01100e+001,8.14584e-001,1.01100e+001,-2.52575e-001,1.01100e+001,-1.47983e-001,1.01100e+001,5.00752e-001,1.01100e+001,3.62549e-002
6.75000e-001,-5.94186e-005,1.01250e+001,8.14512e-001,1.01250e+001,-2.33608e-001,1.01250e+001,-1.34386e-001,1.01250e+001,5.13741e-001,1.01250e+001,3.62549e-002
6.76000e-001,-5.80758e-005,1.01400e+001,8.14573e-001,1.01400e+001,-2.19291e-001,1.01400e+001,-1.23767e-001,1.01400e+001,5.22548e-001,1.01400e+001,3.62549e-002
6.77000e-001,-5.40475e-005,1.01550e+001,8.14619e-001,1.01550e+001,-1.99479e-001,1.01550e+001,-1.09348e-001,1.01550e+001,5.33516e-001,1.01550e+001,3.64990e-002
6.78000e-001,-4.80049e-005,1.01700e+001,8.14477e-001,1.01700e+001,-1.84102e-001,1.01700e+001,-9.81127e-002,1.01700e+001,5.41388e-001,1.01700e+001,3.64990e-002
6.79000e-001,-5.27047e-005,1.01850e+001,8.14672e-001,1.01850e+001,-1.63980e-001,1.01850e+001,-8.38750e-002,1.01850e+001,5.49889e-001,1.01850e+001,3.64990e-002
6.80000e-001,-5.33761e-005,1.02000e+001,8.15331e-001,1.02000e+001,-1.50603e-001,1.02000e+001,-7.36179e-002,1.02000e+001,5.54190e-001,1.02000e+001,3.64990e-002
6.81000e-001,-5.70687e-005,1.02150e+001,8.15531e-001,1.02150e+001,-1.38762e-001,1.02150e+001,-6.33711e-002,1.02150e+001,5.58239e-001,1.02150e+001,3.64990e-002
6.82000e-001,-5.67330e-005,1.02300e+001,8.13967e-001,1.02300e+001,-1.22297e-001,1.02300e+001,-4.78725e-002,1.02300e+001,5.65863e-001,1.02300e+001,3.71094e-002
6.83000e-001,-6.24399e-005,1.02450e+001,8.13008e-001,1.02450e+001,-1.09491e-001,1.02450e+001,-3.40836e-002,1.02450e+001,5.70842e-001,1.02450e+001,3.71094e-002
6.84000e-001,-5.74044e-005,1.02600e+001,8.12020e-001,1.02600e+001,-9.42736e-002,1.02600e+001,-1.52568e-002,1.02600e+001,5.75758e-001,1.02600e+001,3.71094e-002
6.85000e-001,-6.78111e-005,1.02750e+001,8.11128e-001,1.02750e+001,-8.41153e-002,1.02750e+001,-1.96642e-003,1.02750e+001,5.78780e-001,1.02750e+001,3.71094e-002
6.86000e-001,-6.94896e-005,1.02900e+001,8.09518e-001,1.02900e+001,-7.40582e-002,1.02900e+001,1.00905e-002,1.02900e+001,5.82313e-001,1.02900e+001,3.64990e-002
6.87000e-001,-6.41184e-005,1.03050e+001,8.05796e-001,1.03050e+001,-6.00380e-002,1.03050e+001,2.44828e-002,1.03050e+001,5.88630e-001,1.03050e+001,3.66211e-002
6.88000e-001,-6.34470e-005,1.03200e+001,8.02284e-001,1.03200e+001,-5.02727e-002,1.03200e+001,3.40973e-002,1.03200e+001,5.93842e-001,1.03200e+001,3.66211e-002
6.89000e-001,-6.21042e-005,1.03350e+001,7.96951e-001,1.03350e+001,-3.82845e-002,1.03350e+001,4.62632e-002,1.03350e+001,6.01050e-001,1.03350e+001,3.66211e-002
6.90000e-001,-6.00900e-005,1.03500e+001,7.92674e-001,1.03500e+001,-3.02650e-002,1.03500e+001,5.52137e-002,1.03500e+001,6.06384e-001,1.03500e+001,3.66211e-002
6.91000e-001,-5.67330e-005,1.03650e+001,7.88387e-001,1.03650e+001,-2.29505e-002,1.03650e+001,6.31395e-002,1.03650e+001,6.11500e-001,1.03650e+001,3.67432e-002
6.92000e-001,-5.94186e-005,1.03800e+001,7.83527e-001,1.03800e+001,-1.42451e-002,1.03800e+001,7.25688e-002,1.03800e+001,6.16941e-001,1.03800e+001,3.66211e-002
6.93000e-001,-5.94186e-005,1.03950e+001,7.80370e-001,1.03950e+001,-8.16537e-003,1.03950e+001,7.76706e-002,1.03950e+001,6.20422e-001,1.03950e+001,3.66211e-002
6.94000e-001,-5.80758e-005,1.04100e+001,7.76705e-001,1.04100e+001,-8.15738e-004,1.04100e+001,8.23771e-002,1.04100e+001,6.24454e-001,1.04100e+001,3.66211e-002
6.95000e-001,-6.10971e-005,1.04250e+001,7.74509e-001,1.04250e+001,3.95797e-003,1.04250e+001,8.51063e-002,1.04250e+001,6.26800e-001,1.04250e+001,3.66211e-002
6.96000e-001,-5.84115e-005,1.04400e+001,7.72343e-001,1.04400e+001,9.80937e-003,1.04400e+001,8.83849e-002,1.04400e+001,6.28950e-001,1.04400e+001,3.66211e-002
6.97000e-001,-5.70687e-005,1.04550e+001,7.71288e-001,1.04550e+001,1.38963e-002,1.04550e+001,9.00635e-002,1.04550e+001,6.29929e-001,1.04550e+001,3.66211e-002
6.98000e-001,-6.21042e-005,1.04700e+001,7.70454e-001,1.04700e+001,1.73761e-002,1.04700e+001,9.15910e-002,1.04700e+001,6.30642e-001,1.04700e+001,3.66211e-002
6.99000e-001,-5.97543e-005,1.04850e+001,7.69821e-001,1.04850e+001,2.09770e-002,1.04850e+001,9.33687e-002,1.04850e+001,6.31045e-001,1.04850e+001,3.66211e-002
7.00000e-001,-6.04257e-005,1.05000e+001,7.69679e-001,1.05000e+001,2.34136e-002,1.05000e+001,9.45693e-002,1.05000e+001,6.30954e-001,1.05000e+001,3.66211e-002
7.01000e-001,-6.37827e-005,1.05150e+001,7.70228e-001,1.05150e+001,2.53962e-002,1.05150e+001,9.57956e-002,1.05150e+001,6.30021e-001,1.05150e+001,3.66211e-002
7.02000e-001,-5.60616e-005,1.05300e+001,7.70783e-001,1.05300e+001,2.61716e-002,1.05300e+001,9.70209e-002,1.05300e+001,6.29122e-001,1.05300e+001,3.66211e-002
7.03000e-001,-5.74044e-005,1.05450e+001,7.71533e-001,1.05450e+001,2.66566e-002,1.05450e+001,9.78545e-002,1.05450e+001,6.28053e-001,1.05450e+001,3.66211e-002
7.04000e-001,-5.87472e-005,1.05600e+001,7.72321e-001,1.05600e+001,2.70115e-002,1.05600e+001,9.89856e-002,1.05600e+001,6.26891e-001,1.05600e+001,3.66211e-002
7.05000e-001,-5.67330e-005,1.05750e+001,7.72838e-001,1.05750e+001,2.78555e-002,1.05750e+001,9.92409e-002,1.05750e+001,6.26176e-001,1.05750e+001,3.66211e-002
7.06000e-001,-5.70687e-005,1.05900e+001,7.73191e-001,1.05900e+001,2.93115e-002,1.05900e+001,9.88148e-002,1.05900e+001,6.25741e-001,1.05900e+001,3.66211e-002
7.07000e-001,-5.74044e-005,1.06050e+001,7.73482e-001,1.06050e+001,3.00406e-002,1.06050e+001,9.83539e-002,1.06050e+001,6.25419e-001,1.06050e+001,3.66211e-002
7.08000e-001,-5.57259e-005,1.06200e+001,7.74058e-001,1.06200e+001,3.08098e-002,1.06200e+001,9.76787e-002,1.06200e+001,6.24775e-001,1.06200e+001,3.66211e-002
7.09000e-001,-5.67330e-005,1.06350e+001,7.74732e-001,1.06350e+001,3.11742e-002,1.06350e+001,9.68488e-002,1.06350e+001,6.24050e-001,1.06350e+001,3.66211e-002
7.10000e-001,-5.87472e-005,1.06500e+001,7.75289e-001,1.06500e+001,3.13649e-002,1.06500e+001,9.58852e-002,1.06500e+001,6.23497e-001,1.06500e+001,3.66211e-002
7.11000e-001,-6.14328e-005,1.06650e+001,7.75770e-001,1.06650e+001,3.09833e-002,1.06650e+001,9.43838e-002,1.06650e+001,6.23148e-001,1.06650e+001,3.66211e-002
7.12000e-001,-6.47898e-005,1.06800e+001,7.76264e-001,1.06800e+001,3.02588e-002,1.06800e+001,9.33982e-002,1.06800e+001,6.22715e-001,1.06800e+001,3.66211e-002
7.13000e-001,-5.53903e-005,1.06950e+001,7.77131e-001,1.06950e+001,2.93628e-002,1.06950e+001,9.21700e-002,1.06950e+001,6.21859e-001,1.06950e+001,3.66211e-002
7.14000e-001,-6.10971e-005,1.07100e+001,7.77719e-001,1.07100e+001,2.87137e-002,1.07100e+001,9.11538e-002,1.07100e+001,6.21305e-001,1.07100e+001,3.66211e-002
7.15000e-001,-6.14328e-005,1.07250e+001,7.78376e-001,1.07250e+001,2.82566e-002,1.07250e+001,8.98619e-002,1.07250e+001,6.20690e-001,1.07250e+001,3.66211e-002
7.16000e-001,-6.21042e-005,1.07400e+001,7.78766e-001,1.07400e+001,2.77082e-002,1.07400e+001,8.80964e-002,1.07400e+001,6.20479e-001,1.07400e+001,3.66211e-002
7.17000e-001,-5.53903e-005,1.07550e+001,7.79227e-001,1.07550e+001,2.72020e-002,1.07550e+001,8.67804e-002,1.07550e+001,6.20108e-001,1.07550e+001,3.66211e-002
7.18000e-001,-5.60616e-005,1.07700e+001,7.79839e-001,1.07700e+001,2.63083e-002,1.07700e+001,8.53244e-002,1.07700e+001,6.19580e-001,1.07700e+001,3.66211e-002
7.19000e-001,-6.07614e-005,1.07850e+001,7.80255e-001,1.07850e+001,2.54833e-002,1.07850e+001,8.43742e-002,1.07850e+001,6.19220e-001,1.07850e+001,3.66211e-002
7.20000e-001,-6.47898e-005,1.08000e+001,7.80713e-001,1.08000e+001,2.47655e-002,1.08000e+001,8.34575e-002,1.08000e+001,6.18796e-001,1.08000e+001,3.66211e-002
7.21000e-001,-6.31113e-005,1.08150e+001,7.81333e-001,1.08150e+001,2.39459e-002,1.08150e+001,8.25553e-002,1.08150e+001,6.18167e-001,1.08150e+001,3.66211e-002
7.22000e-001,-5.94186e-005,1.08300e+001,7.81876e-001,1.08300e+001,2.32041e-002,1.08300e+001,8.23833e-002,1.08300e+001,6.17530e-001,1.08300e+001,3.66211e-002
7.23000e-001,-6.07614e-005,1.08450e+001,7.82282e-001,1.08450e+001,2.22598e-002,1.08450e+001,8.23239e-002,1.08450e+001,6.17059e-001,1.08450e+001,3.66211e-002
7.24000e-001,-6.14328e-005,1.08600e+001,7.82262e-001,1.08600e+001,2.16021e-002,1.08600e+001,8.24916e-002,1.08600e+001,6.17085e-001,1.08600e+001,3.66211e-002
7.25000e-001,-6.27756e-005,1.08750e+001,7.82241e-001,1.08750e+001,2.05199e-002,1.08750e+001,8.26187e-002,1.08750e+001,6.17132e-001,1.08750e+001,3.66211e-002
7.26000e-001,-5.67330e-005,1.08900e+001,7.82167e-001,1.08900e+001,1.94386e-002,1.08900e+001,8.27123e-002,1.08900e+001,6.17248e-001,1.08900e+001,3.66211e-002
7.27000e-001,-5.80758e-005,1.09050e+001,7.81944e-001,1.09050e+001,1.84396e-002,1.09050e+001,8.28007e-002,1.09050e+001,6.17549e-001,1.09050e+001,3.66211e-002
7.28000e-001,-5.33761e-005,1.09200e+001,7.81494e-001,1.09200e+001,1.68066e-002,1.09200e+001,8.28888e-002,1.09200e+001,6.18154e-001,1.09200e+001,3.66211e-002
7.29000e-001,-6.61326e-005,1.09350e+001,7.81292e-001,1.09350e+001,1.56188e-002,1.09350e+001,8.29518e-002,1.09350e+001,6.18432e-001,1.09350e+001,3.66211e-002
7.30000e-001,-6.27756e-005,1.09500e+001,7.81183e-001,1.09500e+001,1.38114e-002,1.09500e+001,8.31521e-002,1.09500e+001,6.18586e-001,1.09500e+001,3.66211e-002
7.31000e-001,-5.84115e-005,1.09650e+001,7.81012e-001,1.09650e+001,1.24983e-002,1.09650e+001,8.33237e-002,1.09650e+001,6.18805e-001,1.09650e+001,3.66211e-002
7.32000e-001,-5.30404e-005,1.09800e+001,7.80679e-001,1.09800e+001,1.09414e-002,1.09800e+001,8.34501e-002,1.09800e+001,6.19238e-001,1.09800e+001,3.66211e-002
7.33000e-001,-5.74044e-005,1.09950e+001,7.80155e-001,1.09950e+001,8.99405e-003,1.09950e+001,8.37201e-002,1.09950e+001,6.19894e-001,1.09950e+001,3.66211e-002
7.34000e-001,-6.07614e-005,1.10100e+001,7.79759e-001,1.10100e+001,7.73694e-003,1.10100e+001,8.40366e-002,1.10100e+001,6.20366e-001,1.10100e+001,3.66211e-002
7.35000e-001,-6.14328e-005,1.10250e+001,7.79188e-001,1.10250e+001,6.40947e-003,1.10250e+001,8.48998e-002,1.10250e+001,6.20981e-001,1.10250e+001,3.66211e-002
7.36000e-001,-5.87472e-005,1.10400e+001,7.78445e-001,1.10400e+001,5.09079e-003,1.10400e+001,8.57295e-002,1.10400e+001,6.21810e-001,1.10400e+001,3.66211e-002
7.37000e-001,-5.67330e-005,1.10550e+001,7.77292e-001,1.10550e+001,3.40860e-003,1.10550e+001,8.65260e-002,1.10550e+001,6.23152e-001,1.10550e+001,3.66211e-002
7.38000e-001,-6.14328e-005,1.10700e+001,7.76617e-001,1.10700e+001,2.16230e-003,1.10700e+001,8.72310e-002,1.10700e+001,6.23901e-001,1.10700e+001,3.66211e-002
7.39000e-001,-6.37827e-005,1.10850e+001,7.75914e-001,1.10850e+001,1.23378e-003,1.10850e+001,8.81554e-002,1.10850e+001,6.24647e-001,1.10850e+001,3.66211e-002
