# Label: Avanti Sensor 1: EMG 1->RMean->Subset Sampling frequency: 1.000000e+003 Number of points: 5000 X start: 0.000000e+000 Unit: V Domain Unit: s
X [s],Avanti Sensor 1: EMG 1->RMean->Subset [V]
0.000000e+000,-5.283024e-007
1.000000e-003,1.821588e-006
2.000000e-003,3.500079e-006
3.000000e-003,3.164381e-006
4.000000e-003,2.157286e-006
5.000000e-003,-1.871095e-006
6.000000e-003,1.430939e-007
7.000000e-003,4.787956e-007
8.000000e-003,-2.878189e-006
9.000000e-003,-3.549589e-006
1.000000e-002,-5.563778e-006
1.100000e-002,-4.220985e-006
1.200000e-002,-1.199699e-006
1.300000e-002,-2.206793e-006
1.400000e-002,-8.640005e-007
1.500000e-002,4.787956e-007
1.600000e-002,4.787956e-007
1.700000e-002,3.835781e-006
1.800000e-002,3.500079e-006
1.900000e-002,2.492984e-006
2.000000e-002,3.835781e-006
2.100000e-002,1.150192e-006
2.200000e-002,2.492984e-006
2.300000e-002,1.821588e-006
2.400000e-002,1.430939e-007
2.500000e-002,-1.199699e-006
2.600000e-002,-1.926043e-007
2.700000e-002,4.787956e-007
2.800000e-002,3.164381e-006
2.900000e-002,-5.283024e-007
3.000000e-002,1.150192e-006
3.100000e-002,-1.535397e-006
3.200000e-002,-2.542491e-006
3.300000e-002,-1.199699e-006
3.400000e-002,-2.878189e-006
3.500000e-002,2.492984e-006
3.600000e-002,5.178573e-006
3.700000e-002,1.088545e-005
3.800000e-002,8.144938e-007
3.900000e-002,2.828683e-006
4.000000e-002,4.507177e-006
4.100000e-002,4.787956e-007
4.200000e-002,1.821588e-006
4.300000e-002,1.150192e-006
4.400000e-002,1.821588e-006
4.500000e-002,1.430939e-007
4.600000e-002,-1.362054e-005
4.700000e-002,-1.597043e-005
4.800000e-002,-7.577967e-006
4.900000e-002,-1.535397e-006
5.000000e-002,5.178573e-006
5.100000e-002,2.492984e-006
5.200000e-002,-1.127065e-005
5.300000e-002,-7.577967e-006
5.400000e-002,-1.294914e-005
5.500000e-002,-1.294914e-005
5.600000e-002,-5.563778e-006
5.700000e-002,-8.640005e-007
5.800000e-002,-7.242269e-006
5.900000e-002,-8.249363e-006
6.000000e-002,9.206954e-006
6.100000e-002,1.592092e-005
6.200000e-002,3.002026e-005
6.300000e-002,3.975552e-005
6.400000e-002,2.733467e-005
6.500000e-002,1.323534e-005
6.600000e-002,1.150192e-006
6.700000e-002,-8.249363e-006
6.800000e-002,-8.585068e-006
6.900000e-002,-5.563778e-006
7.000000e-002,-3.678374e-005
7.100000e-002,-2.100591e-005
7.200000e-002,1.189254e-005
7.300000e-002,3.941982e-005
7.400000e-002,3.002026e-005
7.500000e-002,8.535558e-006
7.600000e-002,-1.926043e-007
7.700000e-002,-1.535397e-006
7.800000e-002,-8.920767e-006
7.900000e-002,-8.249363e-006
8.000000e-002,-6.235174e-006
8.100000e-002,-9.927861e-006
8.200000e-002,-8.249363e-006
8.300000e-002,-8.249363e-006
8.400000e-002,-1.026356e-005
8.500000e-002,-1.093496e-005
8.600000e-002,-1.462763e-005
8.700000e-002,-1.899172e-005
8.800000e-002,-8.585068e-006
8.900000e-002,-8.640005e-007
9.000000e-002,-8.640005e-007
9.100000e-002,5.178573e-006
9.200000e-002,1.457813e-005
9.300000e-002,2.129210e-005
9.400000e-002,8.535558e-006
9.500000e-002,3.164381e-006
9.600000e-002,-2.206793e-006
9.700000e-002,1.430939e-007
9.800000e-002,-5.283024e-007
9.900000e-002,1.150192e-006
1.000000e-001,3.835781e-006
1.010000e-001,1.821588e-006
1.020000e-001,-1.199699e-006
1.030000e-001,-3.213891e-006
1.040000e-001,-4.892382e-006
1.050000e-001,-2.878189e-006
1.060000e-001,4.787956e-007
1.070000e-001,1.150192e-006
1.080000e-001,-1.871095e-006
1.090000e-001,-8.640005e-007
1.100000e-001,4.787956e-007
1.110000e-001,1.430939e-007
1.120000e-001,-1.535397e-006
1.130000e-001,2.828683e-006
1.140000e-001,1.150192e-006
1.150000e-001,1.150192e-006
1.160000e-001,3.835781e-006
1.170000e-001,3.164381e-006
1.180000e-001,4.787956e-007
1.190000e-001,4.787956e-007
1.200000e-001,4.787956e-007
1.210000e-001,-5.283024e-007
1.220000e-001,2.157286e-006
1.230000e-001,5.178573e-006
1.240000e-001,3.835781e-006
1.250000e-001,-1.535397e-006
1.260000e-001,1.821588e-006
1.270000e-001,8.144938e-007
1.280000e-001,3.835781e-006
1.290000e-001,4.787956e-007
1.300000e-001,-1.535397e-006
1.310000e-001,-1.926043e-007
1.320000e-001,-1.199699e-006
1.330000e-001,-2.878189e-006
1.340000e-001,2.157286e-006
1.350000e-001,-1.535397e-006
1.360000e-001,-4.556684e-006
1.370000e-001,-3.885287e-006
1.380000e-001,-1.535397e-006
1.390000e-001,-2.878189e-006
1.400000e-001,1.430939e-007
1.410000e-001,-8.640005e-007
1.420000e-001,-1.535397e-006
1.430000e-001,-2.206793e-006
1.440000e-001,-5.899476e-006
1.450000e-001,-6.906571e-006
1.460000e-001,-2.206793e-006
1.470000e-001,3.835781e-006
1.480000e-001,6.521366e-006
1.490000e-001,1.054975e-005
1.500000e-001,6.521366e-006
1.510000e-001,3.164381e-006
1.520000e-001,5.178573e-006
1.530000e-001,7.528464e-006
1.540000e-001,4.787956e-007
1.550000e-001,-5.563778e-006
1.560000e-001,-1.926043e-007
1.570000e-001,1.150192e-006
1.580000e-001,-1.496333e-005
1.590000e-001,-3.309105e-005
1.600000e-001,-4.450481e-005
1.610000e-001,-2.302010e-005
1.620000e-001,-5.228080e-006
1.630000e-001,-5.899476e-006
1.640000e-001,-4.220985e-006
1.650000e-001,7.528464e-006
1.660000e-001,3.539144e-005
1.670000e-001,6.023312e-005
1.680000e-001,5.889033e-005
1.690000e-001,3.438434e-005
1.700000e-001,3.835781e-006
1.710000e-001,-3.376245e-005
1.720000e-001,-5.826844e-005
1.730000e-001,-5.222587e-005
1.740000e-001,-6.235174e-006
1.750000e-001,5.419055e-005
1.760000e-001,4.814798e-005
1.770000e-001,1.088545e-005
1.780000e-001,-1.127065e-005
1.790000e-001,-1.764893e-005
1.800000e-001,2.157286e-006
1.810000e-001,4.842875e-006
1.820000e-001,-1.362054e-005
1.830000e-001,-1.535397e-006
1.840000e-001,3.740563e-005
1.850000e-001,2.464908e-005
1.860000e-001,-8.585068e-006
1.870000e-001,4.842875e-006
1.880000e-001,1.150192e-006
1.890000e-001,-5.899476e-006
1.900000e-001,7.192766e-006
1.910000e-001,2.196350e-005
1.920000e-001,2.464908e-005
1.930000e-001,7.192766e-006
1.940000e-001,-3.309105e-005
1.950000e-001,-5.390436e-005
1.960000e-001,-5.189017e-005
1.970000e-001,-3.779084e-005
1.980000e-001,-4.584760e-005
1.990000e-001,-4.920458e-005
2.000000e-001,-1.529903e-005
2.010000e-001,1.155684e-005
2.020000e-001,2.666328e-005
2.030000e-001,2.263489e-005
2.040000e-001,1.726372e-005
2.050000e-001,1.994931e-005
2.060000e-001,1.256394e-005
2.070000e-001,1.430939e-007
2.080000e-001,6.185668e-006
2.090000e-001,1.390673e-005
2.100000e-001,6.521366e-006
2.110000e-001,2.492984e-006
2.120000e-001,3.500079e-006
2.130000e-001,2.828683e-006
2.140000e-001,6.857064e-006
2.150000e-001,8.535558e-006
2.160000e-001,5.178573e-006
2.170000e-001,1.122115e-005
2.180000e-001,1.424243e-005
2.190000e-001,9.206954e-006
2.200000e-001,-2.878189e-006
2.210000e-001,-5.283024e-007
2.220000e-001,-5.899476e-006
2.230000e-001,-1.865602e-005
2.240000e-001,-3.174826e-005
2.250000e-001,-2.771988e-005
2.260000e-001,-1.563474e-005
2.270000e-001,1.430939e-007
2.280000e-001,1.457813e-005
2.290000e-001,1.558523e-005
2.300000e-001,1.692802e-005
2.310000e-001,2.095640e-005
2.320000e-001,3.164381e-006
2.330000e-001,-1.764893e-005
2.340000e-001,-3.510524e-005
2.350000e-001,-2.771988e-005
2.360000e-001,-1.227775e-005
2.370000e-001,8.199860e-006
2.380000e-001,2.129210e-005
2.390000e-001,2.263489e-005
2.400000e-001,1.524953e-005
2.410000e-001,-1.832032e-005
2.420000e-001,-5.457576e-005
2.430000e-001,-6.666090e-005
2.440000e-001,-3.309105e-005
2.450000e-001,-5.793274e-005
2.460000e-001,-3.779084e-005
2.470000e-001,-2.033451e-005
2.480000e-001,2.800607e-005
2.490000e-001,1.112593e-004
2.500000e-001,1.827631e-004
2.510000e-001,1.334154e-004
2.520000e-001,2.867747e-005
2.530000e-001,-2.033451e-005
2.540000e-001,1.994931e-005
2.550000e-001,4.344820e-005
2.560000e-001,3.874842e-005
2.570000e-001,3.069166e-005
2.580000e-001,-3.376245e-005
2.590000e-001,-7.203207e-005
2.600000e-001,-6.464671e-005
2.610000e-001,-4.920458e-005
2.620000e-001,-1.103017e-004
2.630000e-001,-5.591855e-005
2.640000e-001,-1.832032e-005
2.650000e-001,-1.496333e-005
2.660000e-001,8.843180e-005
2.670000e-001,1.032025e-004
2.680000e-001,-2.206793e-006
2.690000e-001,-7.337487e-005
2.700000e-001,-4.181921e-005
2.710000e-001,2.263489e-005
2.720000e-001,1.146163e-004
2.730000e-001,4.143401e-005
2.740000e-001,-1.630613e-005
2.750000e-001,4.747658e-005
2.760000e-001,5.754754e-005
2.770000e-001,-7.404626e-005
2.780000e-001,-5.524715e-005
2.790000e-001,-3.275536e-005
2.800000e-001,-2.100591e-005
2.810000e-001,-9.049550e-005
2.820000e-001,-1.284294e-004
2.830000e-001,-7.203207e-005
2.840000e-001,9.878351e-006
2.850000e-001,8.272492e-005
2.860000e-001,8.910319e-005
2.870000e-001,1.156234e-004
2.880000e-001,7.567525e-005
2.890000e-001,2.229920e-005
2.900000e-001,1.821588e-006
2.910000e-001,-5.189017e-005
2.920000e-001,-1.664183e-005
2.930000e-001,1.357103e-005
2.940000e-001,3.539144e-005
2.950000e-001,8.306062e-005
2.960000e-001,1.726372e-005
2.970000e-001,-7.001788e-005
2.980000e-001,-1.220512e-004
2.990000e-001,-1.062733e-004
3.000000e-001,-4.517620e-005
3.010000e-001,2.492984e-006
3.020000e-001,2.297059e-005
3.030000e-001,2.330629e-005
3.040000e-001,-3.241966e-005
3.050000e-001,-3.174826e-005
3.060000e-001,-7.242269e-006
3.070000e-001,2.330629e-005
3.080000e-001,5.217636e-005
3.090000e-001,2.867747e-005
3.100000e-001,1.021405e-005
3.110000e-001,5.178573e-006
3.120000e-001,-8.640005e-007
3.130000e-001,-1.697753e-005
3.140000e-001,-1.731323e-005
3.150000e-001,-6.235174e-006
3.160000e-001,-1.871095e-006
3.170000e-001,-6.906571e-006
3.180000e-001,-8.249363e-006
3.190000e-001,5.849969e-006
3.200000e-001,1.759941e-005
3.210000e-001,1.994931e-005
3.220000e-001,1.625662e-005
3.230000e-001,1.927791e-005
3.240000e-001,1.524953e-005
3.250000e-001,5.514271e-006
3.260000e-001,-4.220985e-006
3.270000e-001,-4.556684e-006
3.280000e-001,-1.535397e-006
3.290000e-001,3.835781e-006
3.300000e-001,4.507177e-006
3.310000e-001,6.521366e-006
3.320000e-001,3.500079e-006
3.330000e-001,1.821588e-006
3.340000e-001,-4.220985e-006
3.350000e-001,-6.906571e-006
3.360000e-001,-7.577967e-006
3.370000e-001,-6.906571e-006
3.380000e-001,-1.926043e-007
3.390000e-001,4.507177e-006
3.400000e-001,8.144938e-007
3.410000e-001,-1.529903e-005
3.420000e-001,-3.107687e-005
3.430000e-001,-3.275536e-005
3.440000e-001,-7.270347e-005
3.450000e-001,-7.740326e-005
3.460000e-001,2.028500e-005
3.470000e-001,7.366106e-005
3.480000e-001,4.747658e-005
3.490000e-001,6.023312e-005
3.500000e-001,6.560430e-005
3.510000e-001,4.507177e-006
3.520000e-001,-2.503429e-005
3.530000e-001,-4.892382e-006
3.540000e-001,-8.640005e-007
3.550000e-001,1.726372e-005
3.560000e-001,6.426151e-005
3.570000e-001,6.761849e-005
3.580000e-001,9.878351e-006
3.590000e-001,-1.127065e-005
3.600000e-001,-1.093496e-005
3.610000e-001,-1.362054e-005
3.620000e-001,1.726372e-005
3.630000e-001,7.864162e-006
3.640000e-001,-6.498241e-005
3.650000e-001,-6.128973e-005
3.660000e-001,-2.878189e-006
3.670000e-001,4.546239e-005
3.680000e-001,-1.832032e-005
3.690000e-001,-8.780990e-005
3.700000e-001,-4.853318e-005
3.710000e-001,-7.242269e-006
3.720000e-001,1.927791e-005
3.730000e-001,3.404864e-005
3.740000e-001,-8.249363e-006
3.750000e-001,-1.731323e-005
3.760000e-001,-2.872697e-005
3.770000e-001,-3.174826e-005
3.780000e-001,-4.220985e-006
3.790000e-001,-1.429194e-005
3.800000e-001,-3.174826e-005
3.810000e-001,-8.640005e-007
3.820000e-001,1.659232e-005
3.830000e-001,-3.174826e-005
3.840000e-001,-3.846223e-005
3.850000e-001,8.535558e-006
3.860000e-001,7.231827e-005
3.870000e-001,9.850275e-005
3.880000e-001,1.162948e-004
3.890000e-001,4.881938e-005
3.900000e-001,3.539144e-005
3.910000e-001,3.203445e-005
3.920000e-001,-2.503429e-005
3.930000e-001,-4.651899e-005
3.940000e-001,-4.892382e-006
3.950000e-001,7.864162e-006
3.960000e-001,-3.846223e-005
3.970000e-001,-6.666090e-005
3.980000e-001,-1.160635e-005
3.990000e-001,5.586904e-005
4.000000e-001,2.263489e-005
4.010000e-001,-5.424006e-005
4.020000e-001,-2.839127e-005
4.030000e-001,8.144938e-007
4.040000e-001,-1.429194e-005
4.050000e-001,-2.206793e-006
4.060000e-001,-2.369150e-005
4.070000e-001,1.054975e-005
4.080000e-001,5.849969e-006
4.090000e-001,3.874842e-005
4.100000e-001,2.733467e-005
4.110000e-001,-1.529903e-005
4.120000e-001,-7.242269e-006
4.130000e-001,-1.630613e-005
4.140000e-001,-1.362054e-005
4.150000e-001,9.206954e-006
4.160000e-001,1.430939e-007
4.170000e-001,-4.220985e-006
4.180000e-001,1.390673e-005
4.190000e-001,-2.973407e-005
4.200000e-001,-2.973407e-005
4.210000e-001,-1.630613e-005
4.220000e-001,1.150192e-006
4.230000e-001,-1.535397e-006
4.240000e-001,9.206954e-006
4.250000e-001,-1.328484e-005
4.260000e-001,2.767037e-005
4.270000e-001,3.035596e-005
4.280000e-001,3.035596e-005
4.290000e-001,2.498478e-005
4.300000e-001,8.199860e-006
4.310000e-001,9.206954e-006
4.320000e-001,-1.871095e-006
4.330000e-001,-1.597043e-005
4.340000e-001,-1.798462e-005
4.350000e-001,-1.294914e-005
4.360000e-001,-8.585068e-006
4.370000e-001,-7.577967e-006
4.380000e-001,-8.585068e-006
4.390000e-001,-1.899172e-005
4.400000e-001,-2.167730e-005
4.410000e-001,-1.832032e-005
4.420000e-001,-1.093496e-005
4.430000e-001,1.122115e-005
4.440000e-001,2.800607e-005
4.450000e-001,2.666328e-005
4.460000e-001,-1.496333e-005
4.470000e-001,-1.563474e-005
4.480000e-001,3.835781e-006
4.490000e-001,2.464908e-005
4.500000e-001,5.178573e-006
4.510000e-001,-8.640005e-007
4.520000e-001,-1.093496e-005
4.530000e-001,4.171479e-006
4.540000e-001,1.625662e-005
4.550000e-001,2.397769e-005
4.560000e-001,6.521366e-006
4.570000e-001,-7.242269e-006
4.580000e-001,1.150192e-006
4.590000e-001,4.143401e-005
4.600000e-001,2.330629e-005
4.610000e-001,-1.194205e-005
4.620000e-001,-2.637708e-005
4.630000e-001,-1.535397e-006
4.640000e-001,-4.450481e-005
4.650000e-001,-2.067021e-005
4.660000e-001,2.828683e-006
4.670000e-001,-1.362054e-005
4.680000e-001,1.323534e-005
4.690000e-001,3.941982e-005
4.700000e-001,-1.227775e-005
4.710000e-001,-4.892382e-006
4.720000e-001,2.157286e-006
4.730000e-001,-2.906267e-005
4.740000e-001,2.492984e-006
4.750000e-001,6.157592e-005
4.760000e-001,1.028668e-004
4.770000e-001,-1.871095e-006
4.780000e-001,-3.913363e-005
4.790000e-001,-1.223869e-004
4.800000e-001,-1.123159e-004
4.810000e-001,-8.920767e-006
4.820000e-001,7.970363e-005
4.830000e-001,8.037503e-005
4.840000e-001,3.874842e-005
4.850000e-001,1.692802e-005
4.860000e-001,2.800607e-005
4.870000e-001,-6.906571e-006
4.880000e-001,-6.296822e-005
4.890000e-001,-5.524715e-005
4.900000e-001,-1.865602e-005
4.910000e-001,1.659232e-005
4.920000e-001,1.860651e-005
4.930000e-001,1.821588e-006
4.940000e-001,-9.592163e-006
4.950000e-001,-4.220985e-006
4.960000e-001,2.492984e-006
4.970000e-001,5.849969e-006
4.980000e-001,-1.429194e-005
4.990000e-001,-1.832032e-005
5.000000e-001,-1.362054e-005
5.010000e-001,-4.220985e-006
5.020000e-001,1.726372e-005
5.030000e-001,1.390673e-005
5.040000e-001,2.632758e-005
5.050000e-001,2.157286e-006
5.060000e-001,-4.719039e-005
5.070000e-001,-7.242269e-006
5.080000e-001,1.122115e-005
5.090000e-001,2.934886e-005
5.100000e-001,3.807702e-005
5.110000e-001,-2.878189e-006
5.120000e-001,-3.913363e-005
5.130000e-001,-4.618330e-005
5.140000e-001,-1.093496e-005
5.150000e-001,1.994931e-005
5.160000e-001,4.546239e-005
5.170000e-001,5.956173e-005
5.180000e-001,-3.241966e-005
5.190000e-001,1.256394e-005
5.200000e-001,5.849969e-006
5.210000e-001,-4.383341e-005
5.220000e-001,1.994931e-005
5.230000e-001,1.524953e-005
5.240000e-001,-4.618330e-005
5.250000e-001,-1.926043e-007
5.260000e-001,-4.249061e-005
5.270000e-001,-9.183829e-005
5.280000e-001,-3.107687e-005
5.290000e-001,3.203445e-005
5.300000e-001,8.843180e-005
5.310000e-001,9.111739e-005
5.320000e-001,3.438434e-005
5.330000e-001,8.037503e-005
5.340000e-001,2.229920e-005
5.350000e-001,-6.061833e-005
5.360000e-001,-4.752609e-005
5.370000e-001,-4.181921e-005
5.380000e-001,-2.302010e-005
5.390000e-001,-2.604139e-005
5.400000e-001,-3.443385e-005
5.410000e-001,-7.242269e-006
5.420000e-001,1.821588e-006
5.430000e-001,-9.592163e-006
5.440000e-001,6.761849e-005
5.450000e-001,1.028668e-004
5.460000e-001,3.069166e-005
5.470000e-001,-2.771988e-005
5.480000e-001,-4.954028e-005
5.490000e-001,-4.484050e-005
5.500000e-001,-1.926043e-007
5.510000e-001,3.673423e-005
5.520000e-001,2.129210e-005
5.530000e-001,3.740563e-005
5.540000e-001,3.606283e-005
5.550000e-001,-3.107687e-005
5.560000e-001,-2.704848e-005
5.570000e-001,-3.443385e-005
5.580000e-001,-3.913363e-005
5.590000e-001,-1.261345e-005
5.600000e-001,-2.100591e-005
5.610000e-001,-1.127065e-005
5.620000e-001,1.088545e-005
5.630000e-001,9.878351e-006
5.640000e-001,2.532048e-005
5.650000e-001,1.558523e-005
5.660000e-001,2.431338e-005
5.670000e-001,2.157286e-006
5.680000e-001,1.150192e-006
5.690000e-001,7.528464e-006
5.700000e-001,1.189254e-005
5.710000e-001,-1.926043e-007
5.720000e-001,-3.549589e-006
5.730000e-001,-1.496333e-005
5.740000e-001,-3.913363e-005
5.750000e-001,-8.915271e-005
5.760000e-001,-7.673186e-005
5.770000e-001,-2.302010e-005
5.780000e-001,3.203445e-005
5.790000e-001,1.025311e-004
5.800000e-001,6.157592e-005
5.810000e-001,2.867747e-005
5.820000e-001,4.781228e-005
5.830000e-001,-4.853318e-005
5.840000e-001,-5.658995e-005
5.850000e-001,-9.927861e-006
5.860000e-001,-7.639616e-005
5.870000e-001,3.539144e-005
5.880000e-001,1.498646e-004
5.890000e-001,7.500386e-005
5.900000e-001,5.855463e-005
5.910000e-001,7.097548e-005
5.920000e-001,4.579809e-005
5.930000e-001,-5.121877e-005
5.940000e-001,-4.987598e-005
5.950000e-001,-6.397531e-005
5.960000e-001,-9.015980e-005
5.970000e-001,-1.049305e-004
5.980000e-001,-7.941745e-005
5.990000e-001,-1.093496e-005
6.000000e-001,7.198257e-005
6.010000e-001,1.079023e-004
6.020000e-001,-1.294914e-005
6.030000e-001,-7.807465e-005
6.040000e-001,-3.577664e-005
6.050000e-001,-2.033451e-005
6.060000e-001,3.164381e-006
6.070000e-001,2.397769e-005
6.080000e-001,-3.213891e-006
6.090000e-001,-4.249061e-005
6.100000e-001,-2.167730e-005
6.110000e-001,1.759941e-005
6.120000e-001,1.289964e-005
6.130000e-001,3.304155e-005
6.140000e-001,6.185668e-006
6.150000e-001,-4.920458e-005
6.160000e-001,-1.932742e-005
6.170000e-001,-3.476954e-005
6.180000e-001,3.472004e-005
6.190000e-001,1.068952e-004
6.200000e-001,9.447437e-005
6.210000e-001,5.049787e-005
6.220000e-001,1.256394e-005
6.230000e-001,-1.966311e-005
6.240000e-001,-4.114782e-005
6.250000e-001,-1.093496e-005
6.260000e-001,1.592092e-005
6.270000e-001,5.486195e-005
6.280000e-001,4.076261e-005
6.290000e-001,5.849969e-006
6.300000e-001,-6.330391e-005
6.310000e-001,-9.821656e-005
6.320000e-001,-9.452388e-005
6.330000e-001,-5.563778e-006
6.340000e-001,1.042096e-004
6.350000e-001,8.574621e-005
6.360000e-001,3.606283e-005
6.370000e-001,3.673423e-005
6.380000e-001,-6.128973e-005
6.390000e-001,-1.072804e-004
6.400000e-001,-2.906267e-005
6.410000e-001,6.023312e-005
6.420000e-001,6.090452e-005
6.430000e-001,-9.083120e-005
6.440000e-001,-1.378290e-004
6.450000e-001,-4.618330e-005
6.460000e-001,4.507177e-006
6.470000e-001,4.344820e-005
6.480000e-001,6.694709e-005
6.490000e-001,1.726372e-005
6.500000e-001,9.206954e-006
6.510000e-001,8.199860e-006
6.520000e-001,-7.270347e-005
6.530000e-001,-3.711944e-005
6.540000e-001,6.896128e-005
6.550000e-001,7.366106e-005
6.560000e-001,6.359011e-005
6.570000e-001,1.150192e-006
6.580000e-001,-3.846223e-005
6.590000e-001,-3.846223e-005
6.600000e-001,-4.220985e-006
6.610000e-001,1.150192e-006
6.620000e-001,3.270585e-005
6.630000e-001,4.311250e-005
6.640000e-001,6.728279e-005
6.650000e-001,3.169875e-005
6.660000e-001,5.351915e-005
6.670000e-001,-8.378152e-005
6.680000e-001,-1.707274e-004
6.690000e-001,-5.457576e-005
6.700000e-001,2.129210e-005
6.710000e-001,5.419055e-005
6.720000e-001,5.452625e-005
6.730000e-001,9.206954e-006
6.740000e-001,1.357103e-005
6.750000e-001,-4.892382e-006
6.760000e-001,-2.604139e-005
6.770000e-001,-6.235174e-006
6.780000e-001,-8.920767e-006
6.790000e-001,-2.704848e-005
6.800000e-001,-9.927861e-006
6.810000e-001,4.787956e-007
6.820000e-001,9.206954e-006
6.830000e-001,1.150192e-006
6.840000e-001,-1.535397e-006
6.850000e-001,6.023312e-005
6.860000e-001,2.162780e-005
6.870000e-001,-4.220985e-006
6.880000e-001,-3.846223e-005
6.890000e-001,-3.476954e-005
6.900000e-001,-3.376245e-005
6.910000e-001,-3.409815e-005
6.920000e-001,-1.133230e-004
6.930000e-001,1.122115e-005
6.940000e-001,8.843180e-005
6.950000e-001,5.514271e-006
6.960000e-001,2.062070e-005
6.970000e-001,1.894221e-005
6.980000e-001,4.848368e-005
6.990000e-001,1.001812e-004
7.000000e-001,-6.531811e-005
7.010000e-001,-1.062733e-004
7.020000e-001,-2.033451e-005
7.030000e-001,-2.436290e-005
7.040000e-001,3.337725e-005
7.050000e-001,7.567525e-005
7.060000e-001,7.701805e-005
7.070000e-001,9.850275e-005
7.080000e-001,4.781228e-005
7.090000e-001,-1.127065e-005
7.100000e-001,-6.733230e-005
7.110000e-001,-1.160086e-004
7.120000e-001,-7.606047e-005
7.130000e-001,-8.143164e-005
7.140000e-001,8.535558e-006
7.150000e-001,1.099165e-004
7.160000e-001,2.532048e-005
7.170000e-001,-2.637708e-005
7.180000e-001,1.054975e-005
7.190000e-001,-1.832032e-005
7.200000e-001,1.324083e-004
7.210000e-001,9.178878e-005
7.220000e-001,-7.874605e-005
7.230000e-001,-5.563778e-006
7.240000e-001,-8.249363e-006
7.250000e-001,1.625662e-005
7.260000e-001,4.009122e-005
7.270000e-001,-5.256157e-005
7.280000e-001,-7.242269e-006
7.290000e-001,-6.531811e-005
7.300000e-001,-1.928835e-004
7.310000e-001,-3.174826e-005
7.320000e-001,9.313157e-005
7.330000e-001,1.159591e-004
7.340000e-001,8.406772e-005
7.350000e-001,7.500386e-005
7.360000e-001,-2.436290e-005
7.370000e-001,-7.538907e-005
7.380000e-001,-2.536999e-005
7.390000e-001,2.498478e-005
7.400000e-001,-1.832032e-005
7.410000e-001,-5.457576e-005
7.420000e-001,-5.927554e-005
7.430000e-001,-2.973407e-005
7.440000e-001,4.143401e-005
7.450000e-001,8.238922e-005
7.460000e-001,-2.436290e-005
7.470000e-001,-2.906267e-005
7.480000e-001,-2.906267e-005
7.490000e-001,-4.892382e-006
7.500000e-001,1.323534e-005
7.510000e-001,-1.926043e-007
7.520000e-001,-1.630613e-005
7.530000e-001,1.860651e-005
7.540000e-001,3.069166e-005
7.550000e-001,3.304155e-005
7.560000e-001,7.097548e-005
7.570000e-001,-3.846223e-005
7.580000e-001,-8.109594e-005
7.590000e-001,-2.805557e-005
7.600000e-001,3.740563e-005
7.610000e-001,5.351915e-005
7.620000e-001,2.062070e-005
7.630000e-001,-8.249363e-006
7.640000e-001,-3.885287e-006
7.650000e-001,2.492984e-006
7.660000e-001,2.492984e-006
7.670000e-001,-8.249363e-006
7.680000e-001,-1.535397e-006
7.690000e-001,-6.906571e-006
7.700000e-001,1.122115e-005
7.710000e-001,2.498478e-005
7.720000e-001,-1.261345e-005
7.730000e-001,-4.383341e-005
7.740000e-001,-8.780990e-005
7.750000e-001,7.192766e-006
7.760000e-001,1.054975e-005
7.770000e-001,5.514271e-006
7.780000e-001,1.625662e-005
7.790000e-001,3.500079e-006
7.800000e-001,-8.920767e-006
7.810000e-001,-2.839127e-005
7.820000e-001,-3.241966e-005
7.830000e-001,5.855463e-005
7.840000e-001,6.560430e-005
7.850000e-001,4.512669e-005
7.860000e-001,3.404864e-005
7.870000e-001,-6.666090e-005
7.880000e-001,-4.920458e-005
7.890000e-001,5.821893e-005
7.900000e-001,9.783135e-005
7.910000e-001,3.874842e-005
7.920000e-001,-7.740326e-005
7.930000e-001,-6.196112e-005
7.940000e-001,-4.450481e-005
7.950000e-001,-7.438196e-005
7.960000e-001,-1.535397e-006
7.970000e-001,-8.920767e-006
7.980000e-001,-2.939837e-005
7.990000e-001,7.433246e-005
8.000000e-001,5.016217e-005
8.010000e-001,2.129210e-005
8.020000e-001,2.196350e-005
8.030000e-001,-2.469859e-005
8.040000e-001,1.592092e-005
8.050000e-001,5.889033e-005
8.060000e-001,7.864162e-006
8.070000e-001,-8.640005e-007
8.080000e-001,-1.026356e-005
8.090000e-001,-8.249363e-006
8.100000e-001,-2.234870e-005
8.110000e-001,-3.309105e-005
8.120000e-001,-1.926043e-007
8.130000e-001,4.344820e-005
8.140000e-001,1.860651e-005
8.150000e-001,-1.026356e-005
8.160000e-001,-3.213891e-006
8.170000e-001,-1.496333e-005
8.180000e-001,-1.429194e-005
8.190000e-001,-6.235174e-006
8.200000e-001,-1.395624e-005
8.210000e-001,-2.167730e-005
8.220000e-001,-3.549589e-006
8.230000e-001,1.155684e-005
8.240000e-001,-1.630613e-005
8.250000e-001,-1.798462e-005
8.260000e-001,-6.570872e-006
8.270000e-001,-1.496333e-005
8.280000e-001,-7.577967e-006
8.290000e-001,-9.150259e-005
8.300000e-001,-4.886888e-005
8.310000e-001,9.206954e-006
8.320000e-001,1.994931e-005
8.330000e-001,2.492984e-006
8.340000e-001,1.256394e-005
8.350000e-001,1.327440e-004
8.360000e-001,5.284776e-005
8.370000e-001,4.479099e-005
8.380000e-001,4.613379e-005
8.390000e-001,1.793512e-005
8.400000e-001,3.337725e-005
8.410000e-001,2.901316e-005
8.420000e-001,2.229920e-005
8.430000e-001,-3.309105e-005
8.440000e-001,-5.625425e-005
8.450000e-001,-9.284539e-005
8.460000e-001,-4.892382e-006
8.470000e-001,3.835781e-006
8.480000e-001,-3.241966e-005
8.490000e-001,-5.563778e-006
8.500000e-001,1.150192e-006
8.510000e-001,-2.369150e-005
8.520000e-001,-2.973407e-005
8.530000e-001,5.318346e-005
8.540000e-001,9.313157e-005
8.550000e-001,-6.867509e-005
8.560000e-001,-5.457576e-005
8.570000e-001,-2.167730e-005
8.580000e-001,-3.074117e-005
8.590000e-001,2.157286e-006
8.600000e-001,5.956173e-005
8.610000e-001,3.270585e-005
8.620000e-001,-6.570872e-006
8.630000e-001,-2.570569e-005
8.640000e-001,-2.201300e-005
8.650000e-001,5.178573e-006
8.660000e-001,-2.302010e-005
8.670000e-001,-5.558285e-005
8.680000e-001,3.169875e-005
8.690000e-001,9.878351e-006
8.700000e-001,-8.008884e-005
8.710000e-001,-6.061833e-005
8.720000e-001,7.097548e-005
8.730000e-001,3.941982e-005
8.740000e-001,2.095640e-005
8.750000e-001,6.157592e-005
8.760000e-001,1.622855e-004
8.770000e-001,3.002026e-005
8.780000e-001,-1.143301e-004
8.790000e-001,-1.029163e-004
8.800000e-001,1.323534e-005
8.810000e-001,1.193161e-004
8.820000e-001,8.373202e-005
8.830000e-001,-3.342675e-005
8.840000e-001,-3.885287e-006
8.850000e-001,2.492984e-006
8.860000e-001,8.535558e-006
8.870000e-001,1.054975e-005
8.880000e-001,-3.549589e-006
8.890000e-001,-4.886888e-005
8.900000e-001,-4.517620e-005
8.910000e-001,-2.872697e-005
8.920000e-001,4.787956e-007
8.930000e-001,1.092451e-004
8.940000e-001,3.337725e-005
8.950000e-001,-4.181921e-005
8.960000e-001,-3.913363e-005
8.970000e-001,-6.196112e-005
8.980000e-001,-5.759705e-005
8.990000e-001,-2.268440e-005
9.000000e-001,-1.026356e-005
9.010000e-001,-1.261345e-005
9.020000e-001,-7.001788e-005
9.030000e-001,-3.107687e-005
9.040000e-001,5.251206e-005
9.050000e-001,6.023312e-005
9.060000e-001,2.699897e-005
9.070000e-001,-1.832032e-005
9.080000e-001,-2.503429e-005
9.090000e-001,-1.764893e-005
9.100000e-001,1.021405e-005
9.110000e-001,1.827081e-005
9.120000e-001,1.323534e-005
9.130000e-001,1.457813e-005
9.140000e-001,-4.047642e-005
9.150000e-001,-5.692564e-005
9.160000e-001,-4.114782e-005
9.170000e-001,1.726372e-005
9.180000e-001,1.085737e-004
9.190000e-001,7.567525e-005
9.200000e-001,5.217636e-005
9.210000e-001,4.378390e-005
9.220000e-001,-1.697753e-005
9.230000e-001,-6.464671e-005
9.240000e-001,-7.773896e-005
9.250000e-001,1.424243e-005
9.260000e-001,2.666328e-005
9.270000e-001,1.592092e-005
9.280000e-001,5.855463e-005
9.290000e-001,6.426151e-005
9.300000e-001,1.189254e-005
9.310000e-001,1.289964e-005
9.320000e-001,-1.093496e-005
9.330000e-001,-1.362054e-005
9.340000e-001,-4.081212e-005
9.350000e-001,-1.832032e-005
9.360000e-001,-1.899172e-005
9.370000e-001,-5.256157e-005
9.380000e-001,-2.436290e-005
9.390000e-001,5.721184e-005
9.400000e-001,7.668235e-005
9.410000e-001,-8.585068e-006
9.420000e-001,-1.086232e-004
9.430000e-001,-1.109731e-004
9.440000e-001,-5.283024e-007
9.450000e-001,-2.872697e-005
9.460000e-001,3.237015e-005
9.470000e-001,5.486195e-005
9.480000e-001,5.318346e-005
9.490000e-001,4.344820e-005
9.500000e-001,-1.026356e-005
9.510000e-001,-1.294914e-005
9.520000e-001,7.528464e-006
9.530000e-001,2.062070e-005
9.540000e-001,9.878351e-006
9.550000e-001,7.864162e-006
9.560000e-001,-7.577967e-006
9.570000e-001,-2.570569e-005
9.580000e-001,-3.443385e-005
9.590000e-001,-3.409815e-005
9.600000e-001,-5.524715e-005
9.610000e-001,-1.664183e-005
9.620000e-001,7.366106e-005
9.630000e-001,6.291871e-005
9.640000e-001,3.164381e-006
9.650000e-001,-3.846223e-005
9.660000e-001,-5.793274e-005
9.670000e-001,2.157286e-006
9.680000e-001,4.787956e-007
9.690000e-001,4.680518e-005
9.700000e-001,9.044599e-005
9.710000e-001,2.800607e-005
9.720000e-001,-6.196112e-005
9.730000e-001,-1.005664e-004
9.740000e-001,-6.733230e-005
9.750000e-001,1.625662e-005
9.760000e-001,7.231827e-005
9.770000e-001,4.680518e-005
9.780000e-001,3.102736e-005
9.790000e-001,7.164687e-005
9.800000e-001,9.380297e-005
9.810000e-001,7.030408e-005
9.820000e-001,-4.081212e-005
9.830000e-001,-9.720946e-005
9.840000e-001,-6.464671e-005
9.850000e-001,-8.579571e-005
9.860000e-001,-9.989505e-005
9.870000e-001,-1.664183e-005
9.880000e-001,1.457813e-005
9.890000e-001,9.212448e-005
9.900000e-001,7.903224e-005
9.910000e-001,1.961361e-005
9.920000e-001,5.849969e-006
9.930000e-001,-2.206793e-006
9.940000e-001,-1.496333e-005
9.950000e-001,-5.189017e-005
9.960000e-001,-8.546001e-005
9.970000e-001,-1.277580e-004
9.980000e-001,-1.217155e-004
9.990000e-001,-2.906267e-005
1.000000e+000,6.963268e-005
1.001000e+000,1.609427e-004
1.002000e+000,1.810846e-004
1.003000e+000,1.367724e-004
1.004000e+000,3.337725e-005
1.005000e+000,-1.535397e-006
1.006000e+000,1.726372e-005
1.007000e+000,-1.026356e-005
1.008000e+000,-1.217155e-004
1.009000e+000,-1.133230e-004
1.010000e+000,-5.390436e-005
1.011000e+000,6.521366e-006
1.012000e+000,9.984554e-005
1.013000e+000,7.500386e-005
1.014000e+000,4.378390e-005
1.015000e+000,3.874842e-005
1.016000e+000,1.357103e-005
1.017000e+000,-8.881699e-005
1.018000e+000,-7.639616e-005
1.019000e+000,-3.846223e-005
1.020000e+000,-2.335580e-005
1.021000e+000,-3.946933e-005
1.022000e+000,-1.966311e-005
1.023000e+000,-9.592163e-006
1.024000e+000,6.521366e-006
1.025000e+000,-9.256465e-006
1.026000e+000,3.835781e-006
1.027000e+000,1.430939e-007
1.028000e+000,3.164381e-006
1.029000e+000,2.330629e-005
1.030000e+000,5.184066e-005
1.031000e+000,2.196350e-005
1.032000e+000,-5.054738e-005
1.033000e+000,-2.234870e-005
1.034000e+000,2.297059e-005
1.035000e+000,-2.436290e-005
1.036000e+000,-5.256157e-005
1.037000e+000,7.192766e-006
1.038000e+000,8.910319e-005
1.039000e+000,8.003933e-005
1.040000e+000,1.827081e-005
1.041000e+000,-1.026356e-005
1.042000e+000,-5.228080e-006
1.043000e+000,-1.697753e-005
1.044000e+000,-8.920767e-006
1.045000e+000,2.492984e-006
1.046000e+000,-6.263252e-005
1.047000e+000,-8.579571e-005
1.048000e+000,-4.383341e-005
1.049000e+000,5.178573e-006
1.050000e+000,9.111739e-005
1.051000e+000,1.602713e-004
1.052000e+000,4.646949e-005
1.053000e+000,-3.241966e-005
1.054000e+000,-3.678374e-005
1.055000e+000,-4.954028e-005
1.056000e+000,-3.213891e-006
1.057000e+000,-4.786179e-005
1.058000e+000,-3.476954e-005
1.059000e+000,-1.764893e-005
1.060000e+000,7.567525e-005
1.061000e+000,1.323534e-005
1.062000e+000,1.860651e-005
1.063000e+000,-2.906267e-005
1.064000e+000,-7.270347e-005
1.065000e+000,-4.517620e-005
1.066000e+000,7.970363e-005
1.067000e+000,1.394580e-004
1.068000e+000,4.848368e-005
1.069000e+000,1.726372e-005
1.070000e+000,-2.369150e-005
1.071000e+000,-6.235174e-006
1.072000e+000,-3.309105e-005
1.073000e+000,-8.780990e-005
1.074000e+000,6.521366e-006
1.075000e+000,9.178878e-005
1.076000e+000,-3.577664e-005
1.077000e+000,-7.841035e-005
1.078000e+000,-8.210303e-005
1.079000e+000,-9.855226e-005
1.080000e+000,-7.577967e-006
1.081000e+000,3.136305e-005
1.082000e+000,3.706993e-005
1.083000e+000,7.192766e-006
1.084000e+000,6.521366e-006
1.085000e+000,3.874842e-005
1.086000e+000,1.860651e-005
1.087000e+000,-1.899172e-005
1.088000e+000,-1.926043e-007
1.089000e+000,-1.832032e-005
1.090000e+000,-7.577967e-006
1.091000e+000,3.539144e-005
1.092000e+000,2.733467e-005
1.093000e+000,2.934886e-005
1.094000e+000,-9.592163e-006
1.095000e+000,-1.496333e-005
1.096000e+000,5.083357e-005
1.097000e+000,3.539144e-005
1.098000e+000,9.878351e-006
1.099000e+000,-1.535397e-006
1.100000e+000,-5.759705e-005
1.101000e+000,-1.418574e-004
1.102000e+000,-3.443385e-005
1.103000e+000,9.206954e-006
1.104000e+000,3.807702e-005
1.105000e+000,3.136305e-005
1.106000e+000,3.035596e-005
1.107000e+000,1.649710e-004
1.108000e+000,9.648856e-005
1.109000e+000,-3.779084e-005
1.110000e+000,-1.362054e-005
1.111000e+000,-5.189017e-005
1.112000e+000,-3.107687e-005
1.113000e+000,7.433246e-005
1.114000e+000,-7.438196e-005
1.115000e+000,-1.092946e-004
1.116000e+000,-5.222587e-005
1.117000e+000,-5.121877e-005
1.118000e+000,-1.597043e-005
1.119000e+000,5.620474e-005
1.120000e+000,9.850275e-005
1.121000e+000,5.452625e-005
1.122000e+000,-4.383341e-005
1.123000e+000,-4.383341e-005
1.124000e+000,-1.496333e-005
1.125000e+000,2.397769e-005
1.126000e+000,-2.033451e-005
1.127000e+000,-2.570569e-005
1.128000e+000,1.894221e-005
1.129000e+000,6.157592e-005
1.130000e+000,4.881938e-005
1.131000e+000,-2.604139e-005
1.132000e+000,-2.839127e-005
1.133000e+000,8.535558e-006
1.134000e+000,6.521366e-006
1.135000e+000,1.759941e-005
1.136000e+000,9.206954e-006
1.137000e+000,1.759941e-005
1.138000e+000,3.472004e-005
1.139000e+000,1.189254e-005
1.140000e+000,-3.006977e-005
1.141000e+000,-1.062733e-004
1.142000e+000,5.687614e-005
1.143000e+000,7.768944e-005
1.144000e+000,-1.056019e-004
1.145000e+000,8.535558e-006
1.146000e+000,2.397769e-005
1.147000e+000,-5.283024e-007
1.148000e+000,-4.853318e-005
1.149000e+000,-4.316201e-005
1.150000e+000,7.528464e-006
1.151000e+000,3.835781e-006
1.152000e+000,8.171783e-005
1.153000e+000,4.546239e-005
1.154000e+000,-5.658995e-005
1.155000e+000,-5.121877e-005
1.156000e+000,-1.764893e-005
1.157000e+000,6.185668e-006
1.158000e+000,-3.006977e-005
1.159000e+000,9.878351e-006
1.160000e+000,2.464908e-005
1.161000e+000,-1.966311e-005
1.162000e+000,8.776040e-005
1.163000e+000,-2.206793e-006
1.164000e+000,-4.892382e-006
1.165000e+000,1.994931e-005
1.166000e+000,-1.160635e-005
1.167000e+000,-3.040547e-005
1.168000e+000,-2.369150e-005
1.169000e+000,-1.026356e-005
1.170000e+000,7.864162e-006
1.171000e+000,1.323534e-005
1.172000e+000,-2.167730e-005
1.173000e+000,-7.577967e-006
1.174000e+000,1.457813e-005
1.175000e+000,2.196350e-005
1.176000e+000,1.150192e-006
1.177000e+000,-1.026356e-005
1.178000e+000,-2.704848e-005
1.179000e+000,-2.738418e-005
1.180000e+000,-2.033451e-005
1.181000e+000,-8.920767e-006
1.182000e+000,-8.920767e-006
1.183000e+000,-1.261345e-005
1.184000e+000,1.021405e-005
1.185000e+000,9.380297e-005
1.186000e+000,5.620474e-005
1.187000e+000,5.351915e-005
1.188000e+000,3.203445e-005
1.189000e+000,1.961361e-005
1.190000e+000,8.535558e-006
1.191000e+000,-8.249363e-006
1.192000e+000,-3.745514e-005
1.193000e+000,-7.874605e-005
1.194000e+000,-6.263252e-005
1.195000e+000,-9.284539e-005
1.196000e+000,-3.309105e-005
1.197000e+000,-4.220985e-006
1.198000e+000,6.157592e-005
1.199000e+000,3.673423e-005
1.200000e+000,-4.556684e-006
1.201000e+000,-3.376245e-005
1.202000e+000,-7.270347e-005
1.203000e+000,1.726372e-005
1.204000e+000,1.300584e-004
1.205000e+000,9.078168e-005
1.206000e+000,-1.535397e-006
1.207000e+000,-9.592163e-006
1.208000e+000,7.192766e-006
1.209000e+000,9.206954e-006
1.210000e+000,-4.249061e-005
1.211000e+000,-4.249061e-005
1.212000e+000,1.475147e-004
1.213000e+000,9.950985e-005
1.214000e+000,-5.189017e-005
1.215000e+000,-8.411722e-005
1.216000e+000,-1.089589e-004
1.217000e+000,-6.330391e-005
1.218000e+000,-6.263252e-005
1.219000e+000,-3.913363e-005
1.220000e+000,-6.196112e-005
1.221000e+000,2.092833e-004
1.222000e+000,1.636283e-004
1.223000e+000,2.867747e-005
1.224000e+000,-5.961124e-005
1.225000e+000,-8.344582e-005
1.226000e+000,-1.535397e-006
1.227000e+000,5.284776e-005
1.228000e+000,3.539144e-005
1.229000e+000,1.357103e-005
1.230000e+000,-1.798462e-005
1.231000e+000,-8.249363e-006
1.232000e+000,-5.927554e-005
1.233000e+000,-5.591855e-005
1.234000e+000,-4.416911e-005
1.235000e+000,-9.592163e-006
1.236000e+000,4.344820e-005
1.237000e+000,3.164381e-006
1.238000e+000,3.002026e-005
1.239000e+000,5.486195e-005
1.240000e+000,-1.899172e-005
1.241000e+000,-4.282631e-005
1.242000e+000,4.546239e-005
1.243000e+000,9.206954e-006
1.244000e+000,-4.047642e-005
1.245000e+000,-1.865602e-005
1.246000e+000,-6.906571e-006
1.247000e+000,-5.283024e-007
1.248000e+000,5.178573e-006
1.249000e+000,-4.892382e-006
1.250000e+000,-1.871095e-006
1.251000e+000,-2.878189e-006
1.252000e+000,-2.878189e-006
1.253000e+000,-9.592163e-006
1.254000e+000,-8.920767e-006
1.255000e+000,-4.220985e-006
1.256000e+000,3.835781e-006
1.257000e+000,-4.892382e-006
1.258000e+000,-8.920767e-006
1.259000e+000,-3.549589e-006
1.260000e+000,-1.926043e-007
1.261000e+000,2.263489e-005
1.262000e+000,2.095640e-005
1.263000e+000,1.390673e-005
1.264000e+000,9.206954e-006
1.265000e+000,6.185668e-006
1.266000e+000,4.171479e-006
1.267000e+000,4.787956e-007
1.268000e+000,4.787956e-007
1.269000e+000,1.821588e-006
1.270000e+000,4.842875e-006
1.271000e+000,1.821588e-006
1.272000e+000,-8.640005e-007
1.273000e+000,-1.026356e-005
1.274000e+000,-9.592163e-006
1.275000e+000,-3.213891e-006
1.276000e+000,2.828683e-006
1.277000e+000,1.430939e-007
1.278000e+000,-3.549589e-006
1.279000e+000,-1.535397e-006
1.280000e+000,5.849969e-006
1.281000e+000,8.535558e-006
1.282000e+000,2.492984e-006
1.283000e+000,-4.892382e-006
1.284000e+000,-8.249363e-006
1.285000e+000,-5.563778e-006
1.286000e+000,1.821588e-006
1.287000e+000,7.192766e-006
1.288000e+000,4.842875e-006
1.289000e+000,-3.213891e-006
1.290000e+000,1.821588e-006
1.291000e+000,1.430939e-007
1.292000e+000,2.828683e-006
1.293000e+000,4.787956e-007
1.294000e+000,-1.026356e-005
1.295000e+000,-3.644804e-005
1.296000e+000,-5.927554e-005
1.297000e+000,-6.263252e-005
1.298000e+000,-1.059926e-005
1.299000e+000,6.258301e-005
1.300000e+000,8.541051e-005
1.301000e+000,2.666328e-005
1.302000e+000,8.037503e-005
1.303000e+000,-5.591855e-005
1.304000e+000,-1.418574e-004
1.305000e+000,8.871256e-006
1.306000e+000,5.016217e-005
1.307000e+000,1.408008e-004
1.308000e+000,8.708900e-005
1.309000e+000,7.192766e-006
1.310000e+000,-2.503429e-005
1.311000e+000,-7.471766e-005
1.312000e+000,-1.186942e-004
1.313000e+000,-2.503429e-005
1.314000e+000,-4.752609e-005
1.315000e+000,-3.309105e-005
1.316000e+000,6.291871e-005
1.317000e+000,7.399676e-005
1.318000e+000,6.459720e-005
1.319000e+000,2.800607e-005
1.320000e+000,-1.199699e-006
1.321000e+000,-2.973407e-005
1.322000e+000,-1.160635e-005
1.323000e+000,-9.592163e-006
1.324000e+000,3.164381e-006
1.325000e+000,3.069166e-005
1.326000e+000,2.397769e-005
1.327000e+000,-8.249363e-006
1.328000e+000,-2.167730e-005
1.329000e+000,-2.234870e-005
1.330000e+000,-8.249363e-006
1.331000e+000,-9.592163e-006
1.332000e+000,-1.764893e-005
1.333000e+000,-2.704848e-005
1.334000e+000,-2.369150e-005
1.335000e+000,1.150192e-006
1.336000e+000,-2.167730e-005
1.337000e+000,-3.241966e-005
1.338000e+000,-9.592163e-006
1.339000e+000,7.192766e-006
1.340000e+000,-2.369150e-005
1.341000e+000,-4.450481e-005
1.342000e+000,-4.181921e-005
1.343000e+000,5.217636e-005
1.344000e+000,3.807702e-005
1.345000e+000,4.411960e-005
1.346000e+000,1.421436e-004
1.347000e+000,9.246018e-005
1.348000e+000,2.867747e-005
1.349000e+000,2.397769e-005
1.350000e+000,-1.630613e-005
1.351000e+000,-9.955935e-005
1.352000e+000,-1.009021e-004
1.353000e+000,-2.335580e-005
1.354000e+000,-3.644804e-005
1.355000e+000,-1.926043e-007
1.356000e+000,2.733467e-005
1.357000e+000,4.949077e-005
1.358000e+000,-1.026356e-005
1.359000e+000,-2.469859e-005
1.360000e+000,1.189254e-005
1.361000e+000,4.507177e-006
1.362000e+000,1.430939e-007
1.363000e+000,-2.206793e-006
1.364000e+000,5.849969e-006
1.365000e+000,1.390673e-005
1.366000e+000,4.076261e-005
1.367000e+000,4.747658e-005
1.368000e+000,-2.033451e-005
1.369000e+000,3.835781e-006
1.370000e+000,-2.067021e-005
1.371000e+000,-8.411722e-005
1.372000e+000,-2.604139e-005
1.373000e+000,2.934886e-005
1.374000e+000,3.505574e-005
1.375000e+000,3.203445e-005
1.376000e+000,-1.362054e-005
1.377000e+000,-1.563474e-005
1.378000e+000,-1.764893e-005
1.379000e+000,-1.160635e-005
1.380000e+000,-7.242269e-006
1.381000e+000,-3.549589e-006
1.382000e+000,-3.885287e-006
1.383000e+000,-2.878189e-006
1.384000e+000,-5.563778e-006
1.385000e+000,-3.549589e-006
1.386000e+000,3.164381e-006
1.387000e+000,2.828683e-006
1.388000e+000,-4.556684e-006
1.389000e+000,-5.390436e-005
1.390000e+000,-4.047642e-005
1.391000e+000,2.157286e-006
1.392000e+000,2.934886e-005
1.393000e+000,6.426151e-005
1.394000e+000,8.272492e-005
1.395000e+000,2.532048e-005
1.396000e+000,-8.920767e-006
1.397000e+000,-2.973407e-005
1.398000e+000,-1.429194e-005
1.399000e+000,-3.074117e-005
1.400000e+000,-1.395624e-005
1.401000e+000,-1.664183e-005
1.402000e+000,-2.872697e-005
1.403000e+000,6.157592e-005
1.404000e+000,6.090452e-005
1.405000e+000,1.323534e-005
1.406000e+000,-1.865602e-005
1.407000e+000,-2.234870e-005
1.408000e+000,-3.885287e-006
1.409000e+000,1.289964e-005
1.410000e+000,-2.570569e-005
1.411000e+000,-3.678374e-005
1.412000e+000,-5.121877e-005
1.413000e+000,-5.961124e-005
1.414000e+000,-1.926043e-007
1.415000e+000,1.072309e-004
1.416000e+000,1.455005e-004
1.417000e+000,3.270585e-005
1.418000e+000,2.492984e-006
1.419000e+000,3.841272e-005
1.420000e+000,-3.040547e-005
1.421000e+000,-2.704848e-005
1.422000e+000,-2.906267e-005
1.423000e+000,-7.639616e-005
1.424000e+000,-2.436290e-005
1.425000e+000,-3.549589e-006
1.426000e+000,2.492984e-006
1.427000e+000,2.397769e-005
1.428000e+000,1.827081e-005
1.429000e+000,2.062070e-005
1.430000e+000,-3.309105e-005
1.431000e+000,-5.323296e-005
1.432000e+000,2.666328e-005
1.433000e+000,1.659232e-005
1.434000e+000,-4.886888e-005
1.435000e+000,-4.517620e-005
1.436000e+000,-5.356866e-005
1.437000e+000,1.457813e-005
1.438000e+000,7.164687e-005
1.439000e+000,4.210541e-005
1.440000e+000,1.692802e-005
1.441000e+000,-1.227775e-005
1.442000e+000,-3.644804e-005
1.443000e+000,-3.644804e-005
1.444000e+000,-1.932742e-005
1.445000e+000,5.178573e-006
1.446000e+000,-6.464671e-005
1.447000e+000,-2.402720e-005
1.448000e+000,3.069166e-005
1.449000e+000,8.238922e-005
1.450000e+000,7.164687e-005
1.451000e+000,2.968456e-005
1.452000e+000,-7.203207e-005
1.453000e+000,-4.551190e-005
1.454000e+000,-2.206793e-006
1.455000e+000,5.956173e-005
1.456000e+000,5.620474e-005
1.457000e+000,5.150496e-005
1.458000e+000,9.581716e-005
1.459000e+000,5.284776e-005
1.460000e+000,-9.592163e-006
1.461000e+000,-9.927861e-006
1.462000e+000,-5.994693e-005
1.463000e+000,-4.181921e-005
1.464000e+000,-3.913363e-005
1.465000e+000,-2.771988e-005
1.466000e+000,-4.752609e-005
1.467000e+000,5.217636e-005
1.468000e+000,9.044599e-005
1.469000e+000,-7.242269e-006
1.470000e+000,-5.591855e-005
1.471000e+000,-5.356866e-005
1.472000e+000,-3.913363e-005
1.473000e+000,-1.496333e-005
1.474000e+000,-2.671278e-005
1.475000e+000,-4.220985e-006
1.476000e+000,7.528464e-006
1.477000e+000,-1.832032e-005
1.478000e+000,-2.570569e-005
1.479000e+000,-1.535397e-006
1.480000e+000,1.726372e-005
1.481000e+000,1.323534e-005
1.482000e+000,4.244110e-005
1.483000e+000,2.828683e-006
1.484000e+000,1.793512e-005
1.485000e+000,4.680518e-005
1.486000e+000,5.178573e-006
1.487000e+000,-8.585068e-006
1.488000e+000,-3.549589e-006
1.489000e+000,-4.114782e-005
1.490000e+000,-4.719039e-005
1.491000e+000,-4.719039e-005
1.492000e+000,6.185668e-006
1.493000e+000,6.392581e-005
1.494000e+000,4.613379e-005
1.495000e+000,5.351915e-005
1.496000e+000,1.155684e-005
1.497000e+000,-2.369150e-005
1.498000e+000,-5.899476e-006
1.499000e+000,-3.107687e-005
1.500000e+000,-7.404626e-005
1.501000e+000,-8.008884e-005
1.502000e+000,-4.719039e-005
1.503000e+000,5.016217e-005
1.504000e+000,9.850275e-005
1.505000e+000,8.708900e-005
1.506000e+000,5.889033e-005
1.507000e+000,-1.926043e-007
1.508000e+000,-9.592163e-006
1.509000e+000,-4.220985e-006
1.510000e+000,1.256394e-005
1.511000e+000,4.787956e-007
1.512000e+000,-2.033451e-005
1.513000e+000,-1.563474e-005
1.514000e+000,-1.899172e-005
1.515000e+000,-2.302010e-005
1.516000e+000,-4.220985e-006
1.517000e+000,-1.966311e-005
1.518000e+000,-2.206793e-006
1.519000e+000,3.164381e-006
1.520000e+000,-3.577664e-005
1.521000e+000,1.323534e-005
1.522000e+000,1.455005e-004
1.523000e+000,8.843180e-005
1.524000e+000,-6.263252e-005
1.525000e+000,-8.478862e-005
1.526000e+000,-5.457576e-005
1.527000e+000,-3.376245e-005
1.528000e+000,-5.563778e-006
1.529000e+000,-2.469859e-005
1.530000e+000,-3.879793e-005
1.531000e+000,-4.014072e-005
1.532000e+000,-3.241966e-005
1.533000e+000,-8.640005e-007
1.534000e+000,2.330629e-005
1.535000e+000,8.440341e-005
1.536000e+000,9.514577e-005
1.537000e+000,5.821893e-005
1.538000e+000,2.263489e-005
1.539000e+000,-8.249363e-006
1.540000e+000,-4.081212e-005
1.541000e+000,-3.913363e-005
1.542000e+000,2.263489e-005
1.543000e+000,1.994931e-005
1.544000e+000,6.090452e-005
1.545000e+000,3.874842e-005
1.546000e+000,-4.752609e-005
1.547000e+000,-9.754516e-005
1.548000e+000,-8.680281e-005
1.549000e+000,-5.121877e-005
1.550000e+000,-1.899172e-005
1.551000e+000,-1.764893e-005
1.552000e+000,-1.160635e-005
1.553000e+000,5.284776e-005
1.554000e+000,6.795419e-005
1.555000e+000,7.869654e-005
1.556000e+000,4.143401e-005
1.557000e+000,-6.906571e-006
1.558000e+000,-4.651899e-005
1.559000e+000,-2.906267e-005
1.560000e+000,-1.535397e-006
1.561000e+000,4.507177e-006
1.562000e+000,2.767037e-005
1.563000e+000,2.157286e-006
1.564000e+000,2.431338e-005
1.565000e+000,5.150496e-005
1.566000e+000,-1.563474e-005
1.567000e+000,-2.771988e-005
1.568000e+000,-5.390436e-005
1.569000e+000,-6.934649e-005
1.570000e+000,3.500079e-006
1.571000e+000,-3.107687e-005
1.572000e+000,-5.563778e-006
1.573000e+000,6.694709e-005
1.574000e+000,1.927791e-005
1.575000e+000,-3.980502e-005
1.576000e+000,-1.237296e-004
1.577000e+000,-6.934649e-005
1.578000e+000,3.035596e-005
1.579000e+000,7.903224e-005
1.580000e+000,1.636283e-004
1.581000e+000,1.032025e-004
1.582000e+000,6.291871e-005
1.583000e+000,-1.535397e-006
1.584000e+000,-1.395624e-005
1.585000e+000,2.532048e-005
1.586000e+000,-7.913665e-006
1.587000e+000,-1.697753e-005
1.588000e+000,-2.839127e-005
1.589000e+000,-3.409815e-005
1.590000e+000,-2.033451e-005
1.591000e+000,-7.471766e-005
1.592000e+000,-6.128973e-005
1.593000e+000,-2.503429e-005
1.594000e+000,-1.899172e-005
1.595000e+000,1.524953e-005
1.596000e+000,5.553335e-005
1.597000e+000,3.337725e-005
1.598000e+000,-8.640005e-007
1.599000e+000,-1.871095e-006
1.600000e+000,2.565618e-005
1.601000e+000,3.404864e-005
1.602000e+000,1.457813e-005
1.603000e+000,-1.026356e-005
1.604000e+000,-2.704848e-005
1.605000e+000,-2.973407e-005
1.606000e+000,-4.853318e-005
1.607000e+000,-3.644804e-005
1.608000e+000,-3.745514e-005
1.609000e+000,1.155684e-005
1.610000e+000,2.532048e-005
1.611000e+000,-1.362054e-005
1.612000e+000,2.867747e-005
1.613000e+000,2.800607e-005
1.614000e+000,7.864162e-006
1.615000e+000,2.800607e-005
1.616000e+000,6.521366e-006
1.617000e+000,1.726372e-005
1.618000e+000,9.206954e-006
1.619000e+000,-7.577967e-006
1.620000e+000,-1.865602e-005
1.621000e+000,-2.033451e-005
1.622000e+000,-1.496333e-005
1.623000e+000,-4.556684e-006
1.624000e+000,1.424243e-005
1.625000e+000,-4.556684e-006
1.626000e+000,3.500079e-006
1.627000e+000,1.726372e-005
1.628000e+000,4.787956e-007
1.629000e+000,-4.220985e-006
1.630000e+000,-2.878189e-006
1.631000e+000,1.323534e-005
1.632000e+000,-5.563778e-006
1.633000e+000,1.189254e-005
1.634000e+000,1.256394e-005
1.635000e+000,-3.812653e-005
1.636000e+000,6.185668e-006
1.637000e+000,4.344820e-005
1.638000e+000,-5.563778e-006
1.639000e+000,-4.556684e-006
1.640000e+000,-5.228080e-006
1.641000e+000,-1.899172e-005
1.642000e+000,3.164381e-006
1.643000e+000,1.122115e-005
1.644000e+000,-8.640005e-007
1.645000e+000,-2.067021e-005
1.646000e+000,1.256394e-005
1.647000e+000,9.878351e-006
1.648000e+000,-3.107687e-005
1.649000e+000,-1.966311e-005
1.650000e+000,1.793512e-005
1.651000e+000,4.042691e-005
1.652000e+000,-2.878189e-006
1.653000e+000,-5.121877e-005
1.654000e+000,5.514271e-006
1.655000e+000,3.337725e-005
1.656000e+000,5.849969e-006
1.657000e+000,1.524953e-005
1.658000e+000,-4.220985e-006
1.659000e+000,5.514271e-006
1.660000e+000,1.457813e-005
1.661000e+000,-1.362054e-005
1.662000e+000,-1.932742e-005
1.663000e+000,-1.093496e-005
1.664000e+000,-1.563474e-005
1.665000e+000,-9.592163e-006
1.666000e+000,1.289964e-005
1.667000e+000,1.860651e-005
1.668000e+000,-5.283024e-007
1.669000e+000,-7.941745e-005
1.670000e+000,-7.169638e-005
1.671000e+000,4.244110e-005
1.672000e+000,1.495289e-004
1.673000e+000,1.119307e-004
1.674000e+000,1.150192e-006
1.675000e+000,-3.577664e-005
1.676000e+000,-5.927554e-005
1.677000e+000,-6.934649e-005
1.678000e+000,-7.337487e-005
1.679000e+000,-1.395624e-005
1.680000e+000,7.097548e-005
1.681000e+000,3.203445e-005
1.682000e+000,1.253586e-004
1.683000e+000,3.472004e-005
1.684000e+000,-1.899172e-005
1.685000e+000,-6.766800e-005
1.686000e+000,-9.888795e-005
1.687000e+000,-6.397531e-005
1.688000e+000,-6.906571e-006
1.689000e+000,6.560430e-005
1.690000e+000,5.385485e-005
1.691000e+000,9.542652e-006
1.692000e+000,1.150192e-006
1.693000e+000,-1.529903e-005
1.694000e+000,-1.294914e-005
1.695000e+000,3.500079e-006
1.696000e+000,3.164381e-006
1.697000e+000,1.821588e-006
1.698000e+000,-1.160635e-005
1.699000e+000,-2.302010e-005
1.700000e+000,-2.704848e-005
1.701000e+000,-1.160635e-005
1.702000e+000,4.507177e-006
1.703000e+000,1.256394e-005
1.704000e+000,5.514271e-006
1.705000e+000,-1.127065e-005
1.706000e+000,-2.542491e-006
1.707000e+000,1.558523e-005
1.708000e+000,3.835781e-006
1.709000e+000,2.800607e-005
1.710000e+000,5.351915e-005
1.711000e+000,-8.585068e-006
1.712000e+000,-3.174826e-005
1.713000e+000,-5.726134e-005
1.714000e+000,-3.241966e-005
1.715000e+000,4.277680e-005
1.716000e+000,2.733467e-005
1.717000e+000,2.062070e-005
1.718000e+000,6.185668e-006
1.719000e+000,1.821588e-006
1.720000e+000,5.849969e-006
1.721000e+000,-4.556684e-006
1.722000e+000,-1.966311e-005
1.723000e+000,-8.585068e-006
1.724000e+000,-4.220985e-006
1.725000e+000,1.457813e-005
1.726000e+000,-2.206793e-006
1.727000e+000,-9.592163e-006
1.728000e+000,-1.832032e-005
1.729000e+000,-5.121877e-005
1.730000e+000,-2.369150e-005
1.731000e+000,4.277680e-005
1.732000e+000,7.030408e-005
1.733000e+000,5.385485e-005
1.734000e+000,2.901316e-005
1.735000e+000,-8.640005e-007
1.736000e+000,-1.227775e-005
1.737000e+000,1.150192e-006
1.738000e+000,1.457813e-005
1.739000e+000,-1.362054e-005
1.740000e+000,-3.812653e-005
1.741000e+000,-3.980502e-005
1.742000e+000,-4.114782e-005
1.743000e+000,-2.436290e-005
1.744000e+000,2.263489e-005
1.745000e+000,1.793512e-005
1.746000e+000,-9.927861e-006
1.747000e+000,-5.563778e-006
1.748000e+000,-1.899172e-005
1.749000e+000,-2.302010e-005
1.750000e+000,-4.556684e-006
1.751000e+000,-4.383341e-005
1.752000e+000,-7.242269e-006
1.753000e+000,2.532048e-005
1.754000e+000,6.795419e-005
1.755000e+000,7.970363e-005
1.756000e+000,9.850275e-005
1.757000e+000,1.105879e-004
1.758000e+000,2.062070e-005
1.759000e+000,-7.941745e-005
1.760000e+000,-1.076161e-004
1.761000e+000,-2.704848e-005
1.762000e+000,1.726372e-005
1.763000e+000,1.150192e-006
1.764000e+000,2.431338e-005
1.765000e+000,-4.450481e-005
1.766000e+000,-2.839127e-005
1.767000e+000,-3.213891e-006
1.768000e+000,-2.302010e-005
1.769000e+000,-1.294914e-005
1.770000e+000,-4.892382e-006
1.771000e+000,4.787956e-007
1.772000e+000,-4.220985e-006
1.773000e+000,4.787956e-007
1.774000e+000,8.199860e-006
1.775000e+000,3.164381e-006
1.776000e+000,-1.871095e-006
1.777000e+000,-2.206793e-006
1.778000e+000,-2.302010e-005
1.779000e+000,-1.328484e-005
1.780000e+000,1.860651e-005
1.781000e+000,2.263489e-005
1.782000e+000,9.206954e-006
1.783000e+000,-3.885287e-006
1.784000e+000,-1.664183e-005
1.785000e+000,-2.201300e-005
1.786000e+000,-1.899172e-005
1.787000e+000,-2.878189e-006
1.788000e+000,1.390673e-005
1.789000e+000,1.793512e-005
1.790000e+000,6.426151e-005
1.791000e+000,2.492984e-006
1.792000e+000,-5.390436e-005
1.793000e+000,-3.376245e-005
1.794000e+000,-1.535397e-006
1.795000e+000,1.150192e-006
1.796000e+000,1.524953e-005
1.797000e+000,6.493290e-005
1.798000e+000,8.171783e-005
1.799000e+000,7.802514e-005
1.800000e+000,-8.546001e-005
1.801000e+000,-1.307793e-004
1.802000e+000,-4.047642e-005
1.803000e+000,2.733467e-005
1.804000e+000,-2.771988e-005
1.805000e+000,-5.283024e-007
1.806000e+000,4.244110e-005
1.807000e+000,8.440341e-005
1.808000e+000,6.963268e-005
1.809000e+000,3.035596e-005
1.810000e+000,-1.261345e-005
1.811000e+000,-4.220985e-006
1.812000e+000,-1.563474e-005
1.813000e+000,-1.429194e-005
1.814000e+000,-1.127065e-005
1.815000e+000,2.129210e-005
1.816000e+000,1.558523e-005
1.817000e+000,1.659232e-005
1.818000e+000,5.083357e-005
1.819000e+000,1.430939e-007
1.820000e+000,-2.503429e-005
1.821000e+000,-4.148351e-005
1.822000e+000,-1.049305e-004
1.823000e+000,-6.666090e-005
1.824000e+000,-3.812653e-005
1.825000e+000,-4.047642e-005
1.826000e+000,2.062070e-005
1.827000e+000,1.994931e-005
1.828000e+000,-1.798462e-005
1.829000e+000,-5.563778e-006
1.830000e+000,1.793512e-005
1.831000e+000,5.116927e-005
1.832000e+000,6.761849e-005
1.833000e+000,3.941982e-005
1.834000e+000,6.521366e-006
1.835000e+000,-1.535397e-006
1.836000e+000,-3.510524e-005
1.837000e+000,-3.174826e-005
1.838000e+000,-3.107687e-005
1.839000e+000,-4.517620e-005
1.840000e+000,-3.443385e-005
1.841000e+000,-8.585068e-006
1.842000e+000,-2.878189e-006
1.843000e+000,3.941982e-005
1.844000e+000,5.419055e-005
1.845000e+000,3.500079e-006
1.846000e+000,1.155684e-005
1.847000e+000,2.800607e-005
1.848000e+000,1.323534e-005
1.849000e+000,-8.249363e-006
1.850000e+000,-2.771988e-005
1.851000e+000,-6.235174e-006
1.852000e+000,4.109831e-005
1.853000e+000,8.238922e-005
1.854000e+000,1.323534e-005
1.855000e+000,-9.592163e-006
1.856000e+000,-3.913363e-005
1.857000e+000,-3.376245e-005
1.858000e+000,-3.544094e-005
1.859000e+000,-3.309105e-005
1.860000e+000,-4.220985e-006
1.861000e+000,1.793512e-005
1.862000e+000,1.827081e-005
1.863000e+000,-1.496333e-005
1.864000e+000,-2.542491e-006
1.865000e+000,-1.227775e-005
1.866000e+000,3.835781e-006
1.867000e+000,1.457813e-005
1.868000e+000,-2.878189e-006
1.869000e+000,1.021405e-005
1.870000e+000,3.371294e-005
1.871000e+000,1.726372e-005
1.872000e+000,-2.206793e-006
1.873000e+000,9.206954e-006
1.874000e+000,-2.878189e-006
1.875000e+000,-1.362054e-005
1.876000e+000,-1.966311e-005
1.877000e+000,2.632758e-005
1.878000e+000,2.397769e-005
1.879000e+000,-5.283024e-007
1.880000e+000,3.835781e-006
1.881000e+000,-1.832032e-005
1.882000e+000,-5.189017e-005
1.883000e+000,-3.544094e-005
1.884000e+000,-3.885287e-006
1.885000e+000,3.706993e-005
1.886000e+000,1.424243e-005
1.887000e+000,-1.160635e-005
1.888000e+000,-2.067021e-005
1.889000e+000,-5.658995e-005
1.890000e+000,-6.397531e-005
1.891000e+000,-3.885287e-006
1.892000e+000,5.586904e-005
1.893000e+000,9.246018e-005
1.894000e+000,-5.283024e-007
1.895000e+000,2.492984e-006
1.896000e+000,8.871256e-006
1.897000e+000,-2.234870e-005
1.898000e+000,1.659232e-005
1.899000e+000,-3.779084e-005
1.900000e+000,8.440341e-005
1.901000e+000,5.217636e-005
1.902000e+000,-2.839127e-005
1.903000e+000,2.492984e-006
1.904000e+000,-3.241966e-005
1.905000e+000,-8.249363e-006
1.906000e+000,4.210541e-005
1.907000e+000,2.364199e-005
1.908000e+000,-7.404626e-005
1.909000e+000,-3.846223e-005
1.910000e+000,-1.227775e-005
1.911000e+000,-1.926043e-007
1.912000e+000,1.485890e-006
1.913000e+000,-2.206793e-006
1.914000e+000,-2.839127e-005
1.915000e+000,1.457813e-005
1.916000e+000,1.054975e-005
1.917000e+000,-1.563474e-005
1.918000e+000,-1.597043e-005
1.919000e+000,1.659232e-005
1.920000e+000,4.848368e-005
1.921000e+000,4.747658e-005
1.922000e+000,3.438434e-005
1.923000e+000,1.860651e-005
1.924000e+000,3.164381e-006
1.925000e+000,-2.402720e-005
1.926000e+000,-4.853318e-005
1.927000e+000,-7.874605e-005
1.928000e+000,-5.927554e-005
1.929000e+000,9.206954e-006
1.930000e+000,6.090452e-005
1.931000e+000,4.546239e-005
1.932000e+000,-2.503429e-005
1.933000e+000,-7.404626e-005
1.934000e+000,-2.469859e-005
1.935000e+000,8.306062e-005
1.936000e+000,6.090452e-005
1.937000e+000,3.500079e-006
1.938000e+000,3.337725e-005
1.939000e+000,1.011883e-004
1.940000e+000,2.733467e-005
1.941000e+000,-4.282631e-005
1.942000e+000,-1.630613e-005
1.943000e+000,-3.174826e-005
1.944000e+000,-7.538907e-005
1.945000e+000,-5.658995e-005
1.946000e+000,6.521366e-006
1.947000e+000,2.666328e-005
1.948000e+000,2.767037e-005
1.949000e+000,9.878351e-006
1.950000e+000,-1.932742e-005
1.951000e+000,-3.309105e-005
1.952000e+000,-3.544094e-005
1.953000e+000,-8.249363e-006
1.954000e+000,1.390673e-005
1.955000e+000,2.599188e-005
1.956000e+000,3.500079e-006
1.957000e+000,2.129210e-005
1.958000e+000,-1.535397e-006
1.959000e+000,-2.100591e-005
1.960000e+000,-1.227775e-005
1.961000e+000,-6.095403e-005
1.962000e+000,-1.664183e-005
1.963000e+000,6.761849e-005
1.964000e+000,1.592092e-005
1.965000e+000,4.842875e-006
1.966000e+000,2.492984e-006
1.967000e+000,-4.556684e-006
1.968000e+000,2.028500e-005
1.969000e+000,2.767037e-005
1.970000e+000,9.878351e-006
1.971000e+000,4.842875e-006
1.972000e+000,1.150192e-006
1.973000e+000,-8.640005e-007
1.974000e+000,5.178573e-006
1.975000e+000,-3.213891e-006
1.976000e+000,-1.535397e-006
1.977000e+000,1.155684e-005
1.978000e+000,-3.309105e-005
1.979000e+000,-3.779084e-005
1.980000e+000,-7.577967e-006
1.981000e+000,2.464908e-005
1.982000e+000,3.472004e-005
1.983000e+000,5.849969e-006
1.984000e+000,3.164381e-006
1.985000e+000,1.122115e-005
1.986000e+000,2.666328e-005
1.987000e+000,4.507177e-006
1.988000e+000,-4.148351e-005
1.989000e+000,-6.196112e-005
1.990000e+000,-7.538907e-005
1.991000e+000,-5.826844e-005
1.992000e+000,1.994931e-005
1.993000e+000,8.708900e-005
1.994000e+000,8.809610e-005
1.995000e+000,3.807702e-005
1.996000e+000,-4.220985e-006
1.997000e+000,-3.309105e-005
1.998000e+000,-2.872697e-005
1.999000e+000,-7.242269e-006
2.000000e+000,-8.249363e-006
2.001000e+000,2.229920e-005
2.002000e+000,3.874842e-005
2.003000e+000,1.860651e-005
2.004000e+000,1.524953e-005
2.005000e+000,2.733467e-005
2.006000e+000,1.625662e-005
2.007000e+000,-3.174826e-005
2.008000e+000,-4.987598e-005
2.009000e+000,-4.685469e-005
2.010000e+000,-3.107687e-005
2.011000e+000,-5.899476e-006
2.012000e+000,2.492984e-006
2.013000e+000,-6.235174e-006
2.014000e+000,-2.167730e-005
2.015000e+000,-1.535397e-006
2.016000e+000,1.256394e-005
2.017000e+000,-2.469859e-005
2.018000e+000,5.083357e-005
2.019000e+000,3.169875e-005
2.020000e+000,1.150192e-006
2.021000e+000,4.881938e-005
2.022000e+000,1.289964e-005
2.023000e+000,-2.570569e-005
2.024000e+000,-1.362054e-005
2.025000e+000,4.507177e-006
2.026000e+000,-7.242269e-006
2.027000e+000,-3.443385e-005
2.028000e+000,-3.711944e-005
2.029000e+000,7.864162e-006
2.030000e+000,3.136305e-005
2.031000e+000,5.016217e-005
2.032000e+000,4.277680e-005
2.033000e+000,5.016217e-005
2.034000e+000,-3.980502e-005
2.035000e+000,-7.438196e-005
2.036000e+000,-4.383341e-005
2.037000e+000,-2.302010e-005
2.038000e+000,3.069166e-005
2.039000e+000,2.800607e-005
2.040000e+000,-8.640005e-007
2.041000e+000,-2.604139e-005
2.042000e+000,-2.771988e-005
2.043000e+000,-4.987598e-005
2.044000e+000,-5.021167e-005
2.045000e+000,-2.335580e-005
2.046000e+000,3.606283e-005
2.047000e+000,6.963268e-005
2.048000e+000,5.016217e-005
2.049000e+000,3.841272e-005
2.050000e+000,1.088545e-005
2.051000e+000,-2.335580e-005
2.052000e+000,-5.189017e-005
2.053000e+000,2.263489e-005
2.054000e+000,6.493290e-005
2.055000e+000,6.521366e-006
2.056000e+000,2.129210e-005
2.057000e+000,3.807702e-005
2.058000e+000,5.178573e-006
2.059000e+000,-2.206793e-006
2.060000e+000,-1.764893e-005
2.061000e+000,-1.496333e-005
2.062000e+000,6.185668e-006
2.063000e+000,1.122115e-005
2.064000e+000,-1.926043e-007
2.065000e+000,-3.213891e-006
2.066000e+000,-1.529903e-005
2.067000e+000,-3.577664e-005
2.068000e+000,-3.443385e-005
2.069000e+000,-3.107687e-005
2.070000e+000,-2.973407e-005
2.071000e+000,3.606283e-005
2.072000e+000,9.648856e-005
2.073000e+000,-1.832032e-005
2.074000e+000,-1.089589e-004
2.075000e+000,-8.008884e-005
2.076000e+000,1.256394e-005
2.077000e+000,6.023312e-005
2.078000e+000,1.189254e-005
2.079000e+000,-1.093496e-005
2.080000e+000,8.535558e-006
2.081000e+000,3.002026e-005
2.082000e+000,2.196350e-005
2.083000e+000,1.189254e-005
2.084000e+000,-4.316201e-005
2.085000e+000,-1.026356e-005
2.086000e+000,-8.249363e-006
2.087000e+000,1.558523e-005
2.088000e+000,3.002026e-005
2.089000e+000,6.521366e-006
2.090000e+000,3.941982e-005
2.091000e+000,1.390673e-005
2.092000e+000,-4.752609e-005
2.093000e+000,-1.496333e-005
2.094000e+000,2.464908e-005
2.095000e+000,-3.812653e-005
2.096000e+000,-5.899476e-006
2.097000e+000,-1.496333e-005
2.098000e+000,-7.270347e-005
2.099000e+000,4.244110e-005
2.100000e+000,8.574621e-005
2.101000e+000,2.263489e-005
2.102000e+000,2.532048e-005
2.103000e+000,-1.160635e-005
2.104000e+000,-4.651899e-005
2.105000e+000,-2.973407e-005
2.106000e+000,-3.074117e-005
2.107000e+000,-8.585068e-006
2.108000e+000,1.289964e-005
2.109000e+000,3.136305e-005
2.110000e+000,5.821893e-005
2.111000e+000,4.680518e-005
2.112000e+000,2.229920e-005
2.113000e+000,3.164381e-006
2.114000e+000,3.835781e-006
2.115000e+000,-7.913665e-006
2.116000e+000,-2.234870e-005
2.117000e+000,-1.764893e-005
2.118000e+000,-1.764893e-005
2.119000e+000,-3.846223e-005
2.120000e+000,-2.302010e-005
2.121000e+000,-2.201300e-005
2.122000e+000,3.164381e-006
2.123000e+000,3.270585e-005
2.124000e+000,5.849969e-006
2.125000e+000,-6.906571e-006
2.126000e+000,-4.220985e-006
2.127000e+000,4.507177e-006
2.128000e+000,8.871256e-006
2.129000e+000,4.787956e-007
2.130000e+000,-1.630613e-005
2.131000e+000,-1.261345e-005
2.132000e+000,3.835781e-006
2.133000e+000,1.592092e-005
2.134000e+000,1.524953e-005
2.135000e+000,6.521366e-006
2.136000e+000,8.199860e-006
2.137000e+000,6.521366e-006
2.138000e+000,-7.577967e-006
2.139000e+000,-5.563778e-006
2.140000e+000,-1.328484e-005
2.141000e+000,-3.376245e-005
2.142000e+000,-5.283024e-007
2.143000e+000,5.849969e-006
2.144000e+000,3.706993e-005
2.145000e+000,1.457813e-005
2.146000e+000,-2.201300e-005
2.147000e+000,4.881938e-005
2.148000e+000,2.565618e-005
2.149000e+000,1.155684e-005
2.150000e+000,-2.939837e-005
2.151000e+000,-5.256157e-005
2.152000e+000,-5.457576e-005
2.153000e+000,7.864162e-006
2.154000e+000,5.178573e-006
2.155000e+000,-7.913665e-006
2.156000e+000,2.666328e-005
2.157000e+000,-6.906571e-006
2.158000e+000,-1.362054e-005
2.159000e+000,-1.496333e-005
2.160000e+000,-1.899172e-005
2.161000e+000,8.871256e-006
2.162000e+000,-3.549589e-006
2.163000e+000,-1.926043e-007
2.164000e+000,-4.220985e-006
2.165000e+000,-8.920767e-006
2.166000e+000,2.632758e-005
2.167000e+000,3.740563e-005
2.168000e+000,5.654044e-005
2.169000e+000,5.217636e-005
2.170000e+000,4.411960e-005
2.171000e+000,1.457813e-005
2.172000e+000,1.994931e-005
2.173000e+000,4.842875e-006
2.174000e+000,-3.040547e-005
2.175000e+000,-4.081212e-005
2.176000e+000,-5.228080e-006
2.177000e+000,-1.429194e-005
2.178000e+000,-8.249363e-006
2.179000e+000,-8.920767e-006
2.180000e+000,-2.704848e-005
2.181000e+000,-2.973407e-005
2.182000e+000,-2.973407e-005
2.183000e+000,-9.592163e-006
2.184000e+000,-2.436290e-005
2.185000e+000,-4.282631e-005
2.186000e+000,-1.932742e-005
2.187000e+000,1.793512e-005
2.188000e+000,5.419055e-005
2.189000e+000,3.169875e-005
2.190000e+000,-1.227775e-005
2.191000e+000,1.726372e-005
2.192000e+000,3.069166e-005
2.193000e+000,3.874842e-005
2.194000e+000,3.835781e-006
2.195000e+000,1.150192e-006
2.196000e+000,9.206954e-006
2.197000e+000,1.054975e-005
2.198000e+000,9.206954e-006
2.199000e+000,-4.892382e-006
2.200000e+000,-1.496333e-005
2.201000e+000,-1.127065e-005
2.202000e+000,-7.270347e-005
2.203000e+000,-5.524715e-005
2.204000e+000,1.150192e-006
2.205000e+000,3.203445e-005
2.206000e+000,4.076261e-005
2.207000e+000,2.464908e-005
2.208000e+000,7.500386e-005
2.209000e+000,-2.704848e-005
2.210000e+000,-5.121877e-005
2.211000e+000,-3.510524e-005
2.212000e+000,-2.906267e-005
2.213000e+000,-9.592163e-006
2.214000e+000,-1.932742e-005
2.215000e+000,-2.067021e-005
2.216000e+000,5.178573e-006
2.217000e+000,-1.395624e-005
2.218000e+000,1.021405e-005
2.219000e+000,3.505574e-005
2.220000e+000,4.344820e-005
2.221000e+000,4.680518e-005
2.222000e+000,-1.093496e-005
2.223000e+000,-4.719039e-005
2.224000e+000,-4.181921e-005
2.225000e+000,2.492984e-006
2.226000e+000,4.076261e-005
2.227000e+000,2.867747e-005
2.228000e+000,3.069166e-005
2.229000e+000,2.632758e-005
2.230000e+000,3.500079e-006
2.231000e+000,-4.220985e-006
2.232000e+000,-5.563778e-006
2.233000e+000,-3.779084e-005
2.234000e+000,-1.664183e-005
2.235000e+000,1.821588e-006
2.236000e+000,3.500079e-006
2.237000e+000,8.535558e-006
2.238000e+000,-9.592163e-006
2.239000e+000,6.521366e-006
2.240000e+000,3.270585e-005
2.241000e+000,5.318346e-005
2.242000e+000,2.666328e-005
2.243000e+000,-2.839127e-005
2.244000e+000,-3.711944e-005
2.245000e+000,-2.100591e-005
2.246000e+000,1.793512e-005
2.247000e+000,-8.920767e-006
2.248000e+000,-4.047642e-005
2.249000e+000,-4.047642e-005
2.250000e+000,-3.812653e-005
2.251000e+000,2.129210e-005
2.252000e+000,7.063978e-005
2.253000e+000,-4.719039e-005
2.254000e+000,-5.390436e-005
2.255000e+000,-4.987598e-005
2.256000e+000,3.673423e-005
2.257000e+000,6.896128e-005
2.258000e+000,4.787956e-007
2.259000e+000,2.263489e-005
2.260000e+000,3.874842e-005
2.261000e+000,1.524953e-005
2.262000e+000,2.157286e-006
2.263000e+000,1.860651e-005
2.264000e+000,2.733467e-005
2.265000e+000,-5.256157e-005
2.266000e+000,-6.800370e-005
2.267000e+000,-2.738418e-005
2.268000e+000,3.203445e-005
2.269000e+000,1.860651e-005
2.270000e+000,-1.227775e-005
2.271000e+000,3.835781e-006
2.272000e+000,2.733467e-005
2.273000e+000,1.390673e-005
2.274000e+000,9.206954e-006
2.275000e+000,1.256394e-005
2.276000e+000,9.206954e-006
2.277000e+000,-3.309105e-005
2.278000e+000,-1.362054e-005
2.279000e+000,2.666328e-005
2.280000e+000,-5.283024e-007
2.281000e+000,-4.114782e-005
2.282000e+000,1.122115e-005
2.283000e+000,1.994931e-005
2.284000e+000,6.521366e-006
2.285000e+000,-1.899172e-005
2.286000e+000,-1.496333e-005
2.287000e+000,1.994931e-005
2.288000e+000,1.189254e-005
2.289000e+000,2.464908e-005
2.290000e+000,2.196350e-005
2.291000e+000,-2.771988e-005
2.292000e+000,-5.155447e-005
2.293000e+000,-2.206793e-006
2.294000e+000,1.289964e-005
2.295000e+000,-3.510524e-005
2.296000e+000,-1.496333e-005
2.297000e+000,-3.549589e-006
2.298000e+000,-3.443385e-005
2.299000e+000,-4.249061e-005
2.300000e+000,9.542652e-006
2.301000e+000,5.514271e-006
2.302000e+000,1.150192e-006
2.303000e+000,2.431338e-005
2.304000e+000,7.601095e-005
2.305000e+000,7.869654e-005
2.306000e+000,9.648856e-005
2.307000e+000,-2.704848e-005
2.308000e+000,-1.697753e-005
2.309000e+000,7.864162e-006
2.310000e+000,-6.906571e-006
2.311000e+000,4.507177e-006
2.312000e+000,-4.786179e-005
2.313000e+000,-5.994693e-005
2.314000e+000,-6.196112e-005
2.315000e+000,9.878351e-006
2.316000e+000,2.733467e-005
2.317000e+000,2.733467e-005
2.318000e+000,2.532048e-005
2.319000e+000,4.787956e-007
2.320000e+000,1.256394e-005
2.321000e+000,-2.878189e-006
2.322000e+000,-1.093496e-005
2.323000e+000,-1.697753e-005
2.324000e+000,-1.563474e-005
2.325000e+000,2.800607e-005
2.326000e+000,6.291871e-005
2.327000e+000,-2.939837e-005
2.328000e+000,-4.383341e-005
2.329000e+000,-1.026356e-005
2.330000e+000,-2.335580e-005
2.331000e+000,-2.771988e-005
2.332000e+000,-4.892382e-006
2.333000e+000,-2.436290e-005
2.334000e+000,-2.302010e-005
2.335000e+000,-4.114782e-005
2.336000e+000,-4.047642e-005
2.337000e+000,1.054975e-005
2.338000e+000,2.934886e-005
2.339000e+000,5.016217e-005
2.340000e+000,4.714088e-005
2.341000e+000,3.169875e-005
2.342000e+000,2.599188e-005
2.343000e+000,5.922603e-005
2.344000e+000,1.961361e-005
2.345000e+000,-3.549589e-006
2.346000e+000,-4.316201e-005
2.347000e+000,-2.201300e-005
2.348000e+000,2.666328e-005
2.349000e+000,9.206954e-006
2.350000e+000,2.129210e-005
2.351000e+000,1.821588e-006
2.352000e+000,-1.059926e-005
2.353000e+000,-1.926043e-007
2.354000e+000,-9.927861e-006
2.355000e+000,-2.906267e-005
2.356000e+000,-1.899172e-005
2.357000e+000,-3.510524e-005
2.358000e+000,-6.598951e-005
2.359000e+000,-6.128973e-005
2.360000e+000,-1.496333e-005
2.361000e+000,2.800607e-005
2.362000e+000,6.493290e-005
2.363000e+000,3.539144e-005
2.364000e+000,-1.697753e-005
2.365000e+000,4.881938e-005
2.366000e+000,5.721184e-005
2.367000e+000,9.878351e-006
2.368000e+000,2.565618e-005
2.369000e+000,7.192766e-006
2.370000e+000,-3.711944e-005
2.371000e+000,-4.220985e-006
2.372000e+000,-1.026356e-005
2.373000e+000,-3.644804e-005
2.374000e+000,-1.630613e-005
2.375000e+000,7.864162e-006
2.376000e+000,3.002026e-005
2.377000e+000,3.673423e-005
2.378000e+000,1.323534e-005
2.379000e+000,-9.592163e-006
2.380000e+000,-1.535397e-006
2.381000e+000,-2.570569e-005
2.382000e+000,-3.779084e-005
2.383000e+000,-2.878189e-006
2.384000e+000,1.155684e-005
2.385000e+000,5.514271e-006
2.386000e+000,1.821588e-006
2.387000e+000,1.558523e-005
2.388000e+000,1.793512e-005
2.389000e+000,1.625662e-005
2.390000e+000,-1.630613e-005
2.391000e+000,-1.731323e-005
2.392000e+000,-1.764893e-005
2.393000e+000,-3.107687e-005
2.394000e+000,-3.946933e-005
2.395000e+000,-1.597043e-005
2.396000e+000,-1.764893e-005
2.397000e+000,1.323534e-005
2.398000e+000,-1.026356e-005
2.399000e+000,-1.362054e-005
2.400000e+000,5.849969e-006
2.401000e+000,2.498478e-005
2.402000e+000,4.479099e-005
2.403000e+000,4.210541e-005
2.404000e+000,2.867747e-005
2.405000e+000,-5.899476e-006
2.406000e+000,-1.697753e-005
2.407000e+000,2.666328e-005
2.408000e+000,6.929698e-005
2.409000e+000,-8.640005e-007
2.410000e+000,-2.134160e-005
2.411000e+000,-5.283024e-007
2.412000e+000,-4.987598e-005
2.413000e+000,-4.886888e-005
2.414000e+000,2.129210e-005
2.415000e+000,1.592092e-005
2.416000e+000,3.606283e-005
2.417000e+000,1.323534e-005
2.418000e+000,-2.704848e-005
2.419000e+000,9.206954e-006
2.420000e+000,-9.592163e-006
2.421000e+000,-5.994693e-005
2.422000e+000,-5.860414e-005
2.423000e+000,-7.270347e-005
2.424000e+000,-2.033451e-005
2.425000e+000,3.740563e-005
2.426000e+000,7.231827e-005
2.427000e+000,9.850275e-005
2.428000e+000,8.641760e-005
2.429000e+000,3.572713e-005
2.430000e+000,2.196350e-005
2.431000e+000,-2.167730e-005
2.432000e+000,-4.047642e-005
2.433000e+000,-2.503429e-005
2.434000e+000,-4.618330e-005
2.435000e+000,-7.068928e-005
2.436000e+000,-4.316201e-005
2.437000e+000,-1.535397e-006
2.438000e+000,2.095640e-005
2.439000e+000,1.189254e-005
2.440000e+000,1.122115e-005
2.441000e+000,1.122115e-005
2.442000e+000,1.592092e-005
2.443000e+000,-1.535397e-006
2.444000e+000,-1.362054e-005
2.445000e+000,-1.865602e-005
2.446000e+000,4.411960e-005
2.447000e+000,3.304155e-005
2.448000e+000,5.514271e-006
2.449000e+000,-2.536999e-005
2.450000e+000,-5.121877e-005
2.451000e+000,-4.484050e-005
2.452000e+000,-3.678374e-005
2.453000e+000,1.821588e-006
2.454000e+000,4.680518e-005
2.455000e+000,2.397769e-005
2.456000e+000,1.289964e-005
2.457000e+000,2.800607e-005
2.458000e+000,1.155684e-005
2.459000e+000,-2.604139e-005
2.460000e+000,1.692802e-005
2.461000e+000,-1.535397e-006
2.462000e+000,-1.093496e-005
2.463000e+000,-2.206793e-006
2.464000e+000,-7.577967e-006
2.465000e+000,9.206954e-006
2.466000e+000,7.192766e-006
2.467000e+000,-5.899476e-006
2.468000e+000,1.659232e-005
2.469000e+000,7.192766e-006
2.470000e+000,-1.059926e-005
2.471000e+000,-5.563778e-006
2.472000e+000,1.860651e-005
2.473000e+000,4.411960e-005
2.474000e+000,3.807702e-005
2.475000e+000,4.076261e-005
2.476000e+000,6.185668e-006
2.477000e+000,8.675330e-005
2.478000e+000,4.949077e-005
2.479000e+000,-5.591855e-005
2.480000e+000,-9.083120e-005
2.481000e+000,-8.747420e-005
2.482000e+000,-3.644804e-005
2.483000e+000,-1.697753e-005
2.484000e+000,-6.906571e-006
2.485000e+000,3.002026e-005
2.486000e+000,2.129210e-005
2.487000e+000,-7.577967e-006
2.488000e+000,-5.054738e-005
2.489000e+000,-3.174826e-005
2.490000e+000,4.787956e-007
2.491000e+000,4.787956e-007
2.492000e+000,1.994931e-005
2.493000e+000,1.994931e-005
2.494000e+000,1.793512e-005
2.495000e+000,1.927791e-005
2.496000e+000,6.521366e-006
2.497000e+000,-1.429194e-005
2.498000e+000,-2.738418e-005
2.499000e+000,-2.906267e-005
2.500000e+000,-1.429194e-005
2.501000e+000,1.054975e-005
2.502000e+000,1.189254e-005
2.503000e+000,-9.592163e-006
2.504000e+000,-1.026356e-005
2.505000e+000,-1.664183e-005
2.506000e+000,1.150192e-006
2.507000e+000,2.129210e-005
2.508000e+000,9.206954e-006
2.509000e+000,2.464908e-005
2.510000e+000,2.699897e-005
2.511000e+000,-1.535397e-006
2.512000e+000,-2.542491e-006
2.513000e+000,7.528464e-006
2.514000e+000,-9.927861e-006
2.515000e+000,-1.871095e-006
2.516000e+000,1.424243e-005
2.517000e+000,4.646949e-005
2.518000e+000,1.821588e-006
2.519000e+000,-1.294914e-005
2.520000e+000,-1.630613e-005
2.521000e+000,1.821588e-006
2.522000e+000,-2.167730e-005
2.523000e+000,-4.954028e-005
2.524000e+000,-2.839127e-005
2.525000e+000,-1.362054e-005
2.526000e+000,6.426151e-005
2.527000e+000,4.546239e-005
2.528000e+000,-1.261345e-005
2.529000e+000,8.535558e-006
2.530000e+000,5.083357e-005
2.531000e+000,3.472004e-005
2.532000e+000,-7.913665e-006
2.533000e+000,-5.524715e-005
2.534000e+000,-7.404626e-005
2.535000e+000,-4.584760e-005
2.536000e+000,6.258301e-005
2.537000e+000,3.606283e-005
2.538000e+000,-1.697753e-005
2.539000e+000,-1.630613e-005
2.540000e+000,-3.006977e-005
2.541000e+000,3.874842e-005
2.542000e+000,5.251206e-005
2.543000e+000,1.659232e-005
2.544000e+000,4.009122e-005
2.545000e+000,-5.283024e-007
2.546000e+000,-2.939837e-005
2.547000e+000,-2.604139e-005
2.548000e+000,-2.570569e-005
2.549000e+000,-1.926043e-007
2.550000e+000,3.606283e-005
2.551000e+000,-5.283024e-007
2.552000e+000,-5.289727e-005
2.553000e+000,-3.107687e-005
2.554000e+000,2.157286e-006
2.555000e+000,2.062070e-005
2.556000e+000,4.787956e-007
2.557000e+000,3.069166e-005
2.558000e+000,2.767037e-005
2.559000e+000,-2.542491e-006
2.560000e+000,-3.213891e-006
2.561000e+000,-2.436290e-005
2.562000e+000,-1.294914e-005
2.563000e+000,1.150192e-006
2.564000e+000,-2.067021e-005
2.565000e+000,-2.436290e-005
2.566000e+000,-1.664183e-005
2.567000e+000,3.002026e-005
2.568000e+000,6.224731e-005
2.569000e+000,-4.752609e-005
2.570000e+000,-3.779084e-005
2.571000e+000,-7.913665e-006
2.572000e+000,-2.973407e-005
2.573000e+000,-5.899476e-006
2.574000e+000,1.457813e-005
2.575000e+000,-2.878189e-006
2.576000e+000,2.157286e-006
2.577000e+000,1.961361e-005
2.578000e+000,8.535558e-006
2.579000e+000,2.229920e-005
2.580000e+000,2.666328e-005
2.581000e+000,-5.899476e-006
2.582000e+000,-8.640005e-007
2.583000e+000,-1.899172e-005
2.584000e+000,-1.496333e-005
2.585000e+000,8.535558e-006
2.586000e+000,3.500079e-006
2.587000e+000,2.129210e-005
2.588000e+000,3.941982e-005
2.589000e+000,3.841272e-005
2.590000e+000,3.841272e-005
2.591000e+000,8.535558e-006
2.592000e+000,-3.812653e-005
2.593000e+000,-7.270347e-005
2.594000e+000,-3.376245e-005
2.595000e+000,4.613379e-005
2.596000e+000,9.542652e-006
2.597000e+000,-4.220985e-006
2.598000e+000,1.289964e-005
2.599000e+000,-8.249363e-006
2.600000e+000,-2.906267e-005
2.601000e+000,1.726372e-005
2.602000e+000,1.424243e-005
2.603000e+000,-6.906571e-006
2.604000e+000,-2.206793e-006
2.605000e+000,-2.704848e-005
2.606000e+000,-1.362054e-005
2.607000e+000,1.793512e-005
2.608000e+000,3.505574e-005
2.609000e+000,4.512669e-005
2.610000e+000,3.164381e-006
2.611000e+000,-5.323296e-005
2.612000e+000,-4.181921e-005
2.613000e+000,-2.503429e-005
2.614000e+000,-6.570872e-006
2.615000e+000,-2.201300e-005
2.616000e+000,7.601095e-005
2.617000e+000,1.256394e-005
2.618000e+000,-2.536999e-005
2.619000e+000,4.680518e-005
2.620000e+000,5.620474e-005
2.621000e+000,2.431338e-005
2.622000e+000,-1.630613e-005
2.623000e+000,-3.040547e-005
2.624000e+000,-8.249363e-006
2.625000e+000,-1.535397e-006
2.626000e+000,3.835781e-006
2.627000e+000,-1.294914e-005
2.628000e+000,-2.167730e-005
2.629000e+000,-1.630613e-005
2.630000e+000,-2.302010e-005
2.631000e+000,-4.987598e-005
2.632000e+000,-8.249363e-006
2.633000e+000,3.835781e-006
2.634000e+000,2.492984e-006
2.635000e+000,-1.932742e-005
2.636000e+000,-2.302010e-005
2.637000e+000,2.532048e-005
2.638000e+000,5.217636e-005
2.639000e+000,6.828989e-005
2.640000e+000,2.364199e-005
2.641000e+000,1.961361e-005
2.642000e+000,-1.362054e-005
2.643000e+000,-1.362054e-005
2.644000e+000,-4.416911e-005
2.645000e+000,-3.980502e-005
2.646000e+000,-5.658995e-005
2.647000e+000,-9.592163e-006
2.648000e+000,3.807702e-005
2.649000e+000,3.304155e-005
2.650000e+000,7.864162e-006
2.651000e+000,7.298967e-005
2.652000e+000,5.586904e-005
2.653000e+000,9.878351e-006
2.654000e+000,-2.973407e-005
2.655000e+000,-6.196112e-005
2.656000e+000,-2.436290e-005
2.657000e+000,3.835781e-006
2.658000e+000,1.021405e-005
2.659000e+000,4.143401e-005
2.660000e+000,1.821588e-006
2.661000e+000,-4.853318e-005
2.662000e+000,-4.181921e-005
2.663000e+000,5.849969e-006
2.664000e+000,6.521366e-006
2.665000e+000,1.927791e-005
2.666000e+000,7.528464e-006
2.667000e+000,-2.033451e-005
2.668000e+000,-4.892382e-006
2.669000e+000,1.726372e-005
2.670000e+000,2.492984e-006
2.671000e+000,-1.093496e-005
2.672000e+000,-1.127065e-005
2.673000e+000,1.827081e-005
2.674000e+000,3.270585e-005
2.675000e+000,2.632758e-005
2.676000e+000,7.864162e-006
2.677000e+000,1.994931e-005
2.678000e+000,-5.563778e-006
2.679000e+000,-3.779084e-005
2.680000e+000,-3.141256e-005
2.681000e+000,-3.213891e-006
2.682000e+000,3.164381e-006
2.683000e+000,1.821588e-006
2.684000e+000,-1.664183e-005
2.685000e+000,-3.846223e-005
2.686000e+000,-2.033451e-005
2.687000e+000,-3.913363e-005
2.688000e+000,-3.711944e-005
2.689000e+000,6.056882e-005
2.690000e+000,6.224731e-005
2.691000e+000,1.222824e-005
2.692000e+000,1.759941e-005
2.693000e+000,2.162780e-005
2.694000e+000,2.431338e-005
2.695000e+000,2.867747e-005
2.696000e+000,2.968456e-005
2.697000e+000,-2.167730e-005
2.698000e+000,-1.966311e-005
2.699000e+000,-4.450481e-005
2.700000e+000,-9.821656e-005
2.701000e+000,-3.510524e-005
2.702000e+000,2.800607e-005
2.703000e+000,4.277680e-005
2.704000e+000,3.035596e-005
2.705000e+000,1.491383e-005
2.706000e+000,4.507177e-006
2.707000e+000,-2.704848e-005
2.708000e+000,-3.644804e-005
2.709000e+000,1.860651e-005
2.710000e+000,8.876750e-005
2.711000e+000,6.828989e-005
2.712000e+000,6.157592e-005
2.713000e+000,2.767037e-005
2.714000e+000,-3.980502e-005
2.715000e+000,-5.793274e-005
2.716000e+000,-6.733230e-005
2.717000e+000,-8.344582e-005
2.718000e+000,-5.256157e-005
2.719000e+000,-2.033451e-005
2.720000e+000,3.539144e-005
2.721000e+000,7.802514e-005
2.722000e+000,2.196350e-005
2.723000e+000,-5.155447e-005
2.724000e+000,-3.913363e-005
2.725000e+000,2.867747e-005
2.726000e+000,6.090452e-005
2.727000e+000,4.210541e-005
2.728000e+000,-2.878189e-006
2.729000e+000,-1.535397e-006
2.730000e+000,-5.563778e-006
2.731000e+000,-1.697753e-005
2.732000e+000,-4.719039e-005
2.733000e+000,-6.330391e-005
2.734000e+000,-5.390436e-005
2.735000e+000,1.592092e-005
2.736000e+000,7.836084e-005
2.737000e+000,6.896128e-005
2.738000e+000,-1.227775e-005
2.739000e+000,-4.752609e-005
2.740000e+000,-3.549589e-006
2.741000e+000,1.927791e-005
2.742000e+000,1.122115e-005
2.743000e+000,-1.798462e-005
2.744000e+000,3.102736e-005
2.745000e+000,1.390673e-005
2.746000e+000,-3.107687e-005
2.747000e+000,-6.666090e-005
2.748000e+000,-2.201300e-005
2.749000e+000,-1.597043e-005
2.750000e+000,3.874842e-005
2.751000e+000,8.641760e-005
2.752000e+000,4.646949e-005
2.753000e+000,1.390673e-005
2.754000e+000,-6.028263e-005
2.755000e+000,-3.241966e-005
2.756000e+000,1.659232e-005
2.757000e+000,2.330629e-005
2.758000e+000,4.143401e-005
2.759000e+000,4.881938e-005
2.760000e+000,6.521366e-006
2.761000e+000,-9.592163e-006
2.762000e+000,-6.906571e-006
2.763000e+000,-1.496333e-005
2.764000e+000,-2.302010e-005
2.765000e+000,-2.570569e-005
2.766000e+000,-2.302010e-005
2.767000e+000,-3.141256e-005
2.768000e+000,-1.999881e-005
2.769000e+000,5.178573e-006
2.770000e+000,2.229920e-005
2.771000e+000,2.397769e-005
2.772000e+000,1.021405e-005
2.773000e+000,-8.249363e-006
2.774000e+000,3.835781e-006
2.775000e+000,8.641760e-005
2.776000e+000,-1.535397e-006
2.777000e+000,-7.908175e-005
2.778000e+000,-3.510524e-005
2.779000e+000,-3.376245e-005
2.780000e+000,-4.047642e-005
2.781000e+000,-5.563778e-006
2.782000e+000,-3.376245e-005
2.783000e+000,-6.906571e-006
2.784000e+000,7.567525e-005
2.785000e+000,4.344820e-005
2.786000e+000,1.726372e-005
2.787000e+000,1.150192e-006
2.788000e+000,3.203445e-005
2.789000e+000,1.035382e-004
2.790000e+000,3.874842e-005
2.791000e+000,-3.174826e-005
2.792000e+000,-4.484050e-005
2.793000e+000,-3.846223e-005
2.794000e+000,-4.249061e-005
2.795000e+000,-2.973407e-005
2.796000e+000,-2.704848e-005
2.797000e+000,-5.021167e-005
2.798000e+000,-1.227775e-005
2.799000e+000,2.599188e-005
2.800000e+000,3.438434e-005
2.801000e+000,5.855463e-005
2.802000e+000,3.975552e-005
2.803000e+000,-2.469859e-005
2.804000e+000,-1.966311e-005
2.805000e+000,1.558523e-005
2.806000e+000,-3.885287e-006
2.807000e+000,-2.234870e-005
2.808000e+000,-2.771988e-005
2.809000e+000,-2.906267e-005
2.810000e+000,1.485890e-006
2.811000e+000,1.592092e-005
2.812000e+000,1.122115e-005
2.813000e+000,2.263489e-005
2.814000e+000,1.122115e-005
2.815000e+000,-1.926043e-007
2.816000e+000,-4.220985e-006
2.817000e+000,-2.704848e-005
2.818000e+000,-6.229682e-005
2.819000e+000,-4.181921e-005
2.820000e+000,-3.980502e-005
2.821000e+000,4.076261e-005
2.822000e+000,8.507481e-005
2.823000e+000,3.740563e-005
2.824000e+000,2.492984e-006
2.825000e+000,3.673423e-005
2.826000e+000,5.989743e-005
2.827000e+000,1.280442e-004
2.828000e+000,7.634665e-005
2.829000e+000,-5.390436e-005
2.830000e+000,-5.860414e-005
2.831000e+000,-7.001788e-005
2.832000e+000,-6.632521e-005
2.833000e+000,-2.637708e-005
2.834000e+000,-1.932742e-005
2.835000e+000,-3.510524e-005
2.836000e+000,-4.181921e-005
2.837000e+000,-2.234870e-005
2.838000e+000,5.150496e-005
2.839000e+000,8.708900e-005
2.840000e+000,1.323534e-005
2.841000e+000,1.457813e-005
2.842000e+000,3.136305e-005
2.843000e+000,-7.913665e-006
2.844000e+000,-4.752609e-005
2.845000e+000,-8.920767e-006
2.846000e+000,3.500079e-006
2.847000e+000,-1.764893e-005
2.848000e+000,-2.234870e-005
2.849000e+000,-3.376245e-005
2.850000e+000,1.692802e-005
2.851000e+000,1.457813e-005
2.852000e+000,-1.294914e-005
2.853000e+000,-6.906571e-006
2.854000e+000,-2.878189e-006
2.855000e+000,-1.798462e-005
2.856000e+000,-1.496333e-005
2.857000e+000,-1.395624e-005
2.858000e+000,1.659232e-005
2.859000e+000,4.411960e-005
2.860000e+000,2.867747e-005
2.861000e+000,-1.026356e-005
2.862000e+000,-9.927861e-006
2.863000e+000,1.189254e-005
2.864000e+000,1.457813e-005
2.865000e+000,-8.920767e-006
2.866000e+000,4.747658e-005
2.867000e+000,2.968456e-005
2.868000e+000,-2.033451e-005
2.869000e+000,-6.235174e-006
2.870000e+000,-1.093496e-005
2.871000e+000,-2.704848e-005
2.872000e+000,-1.630613e-005
2.873000e+000,-1.535397e-006
2.874000e+000,2.532048e-005
2.875000e+000,-6.906571e-006
2.876000e+000,-2.206793e-006
2.877000e+000,2.492984e-006
2.878000e+000,-2.268440e-005
2.879000e+000,-8.249363e-006
2.880000e+000,3.835781e-006
2.881000e+000,1.927791e-005
2.882000e+000,2.297059e-005
2.883000e+000,-4.892382e-006
2.884000e+000,-2.100591e-005
2.885000e+000,-1.362054e-005
2.886000e+000,-3.549589e-006
2.887000e+000,-1.535397e-006
2.888000e+000,-2.973407e-005
2.889000e+000,-3.846223e-005
2.890000e+000,-1.496333e-005
2.891000e+000,2.330629e-005
2.892000e+000,3.975552e-005
2.893000e+000,2.800607e-005
2.894000e+000,1.726372e-005
2.895000e+000,3.706993e-005
2.896000e+000,3.606283e-005
2.897000e+000,2.028500e-005
2.898000e+000,1.430939e-007
2.899000e+000,-1.496333e-005
2.900000e+000,-2.302010e-005
2.901000e+000,-6.733230e-005
2.902000e+000,-7.572477e-005
2.903000e+000,2.492984e-006
2.904000e+000,6.023312e-005
2.905000e+000,3.069166e-005
2.906000e+000,1.021405e-005
2.907000e+000,1.491383e-005
2.908000e+000,-3.779084e-005
2.909000e+000,-3.549589e-006
2.910000e+000,1.236801e-004
2.911000e+000,4.814798e-005
2.912000e+000,-3.241966e-005
2.913000e+000,-7.639616e-005
2.914000e+000,-1.163443e-004
2.915000e+000,-7.169638e-005
2.916000e+000,-1.429194e-005
2.917000e+000,3.874842e-005
2.918000e+000,8.641760e-005
2.919000e+000,8.205353e-005
2.920000e+000,7.864162e-006
2.921000e+000,-1.093496e-005
2.922000e+000,-1.194205e-005
2.923000e+000,-2.234870e-005
2.924000e+000,-3.213891e-006
2.925000e+000,1.289964e-005
2.926000e+000,1.726372e-005
2.927000e+000,1.150192e-006
2.928000e+000,-2.067021e-005
2.929000e+000,-3.409815e-005
2.930000e+000,-2.234870e-005
2.931000e+000,7.192766e-006
2.932000e+000,1.524953e-005
2.933000e+000,1.150192e-006
2.934000e+000,-1.597043e-005
2.935000e+000,-9.927861e-006
2.936000e+000,-1.798462e-005
2.937000e+000,-2.570569e-005
2.938000e+000,-5.658995e-005
2.939000e+000,-4.685469e-005
2.940000e+000,-1.362054e-005
2.941000e+000,4.881938e-005
2.942000e+000,9.246018e-005
2.943000e+000,6.627570e-005
2.944000e+000,8.003933e-005
2.945000e+000,-4.892382e-006
2.946000e+000,5.178573e-006
2.947000e+000,-3.913363e-005
2.948000e+000,-9.592163e-006
2.949000e+000,4.546239e-005
2.950000e+000,6.023312e-005
2.951000e+000,4.479099e-005
2.952000e+000,-4.450481e-005
2.953000e+000,1.485890e-006
2.954000e+000,5.687614e-005
2.955000e+000,-4.349770e-005
2.956000e+000,-7.538907e-005
2.957000e+000,-1.096303e-004
2.958000e+000,-1.076161e-004
2.959000e+000,-7.606047e-005
2.960000e+000,-2.302010e-005
2.961000e+000,5.452625e-005
2.962000e+000,1.253586e-004
2.963000e+000,1.354296e-004
2.964000e+000,2.733467e-005
2.965000e+000,-2.872697e-005
2.966000e+000,-2.469859e-005
2.967000e+000,-4.556684e-006
2.968000e+000,2.129210e-005
2.969000e+000,2.532048e-005
2.970000e+000,-5.563778e-006
2.971000e+000,-4.383341e-005
2.972000e+000,-4.249061e-005
2.973000e+000,-6.196112e-005
2.974000e+000,-3.846223e-005
2.975000e+000,-3.213891e-006
2.976000e+000,1.793512e-005
2.977000e+000,2.699897e-005
2.978000e+000,-5.228080e-006
2.979000e+000,-3.241966e-005
2.980000e+000,-1.630613e-005
2.981000e+000,2.599188e-005
2.982000e+000,1.821588e-006
2.983000e+000,-6.906571e-006
2.984000e+000,1.189254e-005
2.985000e+000,2.330629e-005
2.986000e+000,5.956173e-005
2.987000e+000,3.203445e-005
2.988000e+000,3.035596e-005
2.989000e+000,1.524953e-005
2.990000e+000,8.199860e-006
2.991000e+000,4.507177e-006
2.992000e+000,-4.556684e-006
2.993000e+000,-1.160635e-005
2.994000e+000,-1.093496e-005
2.995000e+000,9.206954e-006
2.996000e+000,8.199860e-006
2.997000e+000,-8.920767e-006
2.998000e+000,-3.241966e-005
2.999000e+000,-2.570569e-005
3.000000e+000,3.835781e-006
3.001000e+000,3.337725e-005
3.002000e+000,1.485890e-006
3.003000e+000,-1.832032e-005
3.004000e+000,-2.167730e-005
3.005000e+000,-3.107687e-005
3.006000e+000,-5.228080e-006
3.007000e+000,1.424243e-005
3.008000e+000,-4.114782e-005
3.009000e+000,-8.311013e-005
3.010000e+000,-4.618330e-005
3.011000e+000,-1.966311e-005
3.012000e+000,1.079023e-004
3.013000e+000,1.931697e-004
3.014000e+000,2.464908e-005
3.015000e+000,-2.637708e-005
3.016000e+000,2.492984e-006
3.017000e+000,-1.496333e-005
3.018000e+000,3.164381e-006
3.019000e+000,2.599188e-005
3.020000e+000,4.842875e-006
3.021000e+000,-2.067021e-005
3.022000e+000,-3.678374e-005
3.023000e+000,-3.510524e-005
3.024000e+000,-1.865602e-005
3.025000e+000,-3.549589e-006
3.026000e+000,-1.932742e-005
3.027000e+000,-3.711944e-005
3.028000e+000,-1.865602e-005
3.029000e+000,4.344820e-005
3.030000e+000,5.016217e-005
3.031000e+000,6.627570e-005
3.032000e+000,2.934886e-005
3.033000e+000,9.206954e-006
3.034000e+000,-4.220985e-006
3.035000e+000,-2.973407e-005
3.036000e+000,6.521366e-006
3.037000e+000,-8.109594e-005
3.038000e+000,-8.613141e-005
3.039000e+000,-2.839127e-005
3.040000e+000,2.431338e-005
3.041000e+000,-2.878189e-006
3.042000e+000,-3.376245e-005
3.043000e+000,-2.033451e-005
3.044000e+000,-5.563778e-006
3.045000e+000,1.592092e-005
3.046000e+000,6.627570e-005
3.047000e+000,8.708900e-005
3.048000e+000,1.994931e-005
3.049000e+000,-4.892382e-006
3.050000e+000,-9.351678e-005
3.051000e+000,-8.579571e-005
3.052000e+000,-3.006977e-005
3.053000e+000,2.464908e-005
3.054000e+000,1.058881e-004
3.055000e+000,1.226730e-004
3.056000e+000,3.740563e-005
3.057000e+000,-3.549589e-006
3.058000e+000,-1.462763e-005
3.059000e+000,-6.570872e-006
3.060000e+000,1.189254e-005
3.061000e+000,-1.630613e-005
3.062000e+000,-4.987598e-005
3.063000e+000,-2.704848e-005
3.064000e+000,-2.100591e-005
3.065000e+000,6.521366e-006
3.066000e+000,3.337725e-005
3.067000e+000,1.927791e-005
3.068000e+000,-1.764893e-005
3.069000e+000,3.539144e-005
3.070000e+000,-1.764893e-005
3.071000e+000,-5.692564e-005
3.072000e+000,1.150192e-006
3.073000e+000,-3.213891e-006
3.074000e+000,1.150192e-006
3.075000e+000,9.206954e-006
3.076000e+000,2.263489e-005
3.077000e+000,-9.927861e-006
3.078000e+000,-3.644804e-005
3.079000e+000,2.297059e-005
3.080000e+000,7.164687e-005
3.081000e+000,-2.637708e-005
3.082000e+000,-2.704848e-005
3.083000e+000,-1.932742e-005
3.084000e+000,-5.899476e-006
3.085000e+000,1.558523e-005
3.086000e+000,-2.878189e-006
3.087000e+000,-1.429194e-005
3.088000e+000,-2.738418e-005
3.089000e+000,-3.846223e-005
3.090000e+000,-2.335580e-005
3.091000e+000,5.178573e-006
3.092000e+000,-1.535397e-006
3.093000e+000,3.835781e-006
3.094000e+000,3.673423e-005
3.095000e+000,5.754754e-005
3.096000e+000,3.203445e-005
3.097000e+000,-5.563778e-006
3.098000e+000,-6.906571e-006
3.099000e+000,1.054975e-005
3.100000e+000,-1.871095e-006
3.101000e+000,-9.592163e-006
3.102000e+000,1.122115e-005
3.103000e+000,-1.563474e-005
3.104000e+000,-1.697753e-005
3.105000e+000,-6.235174e-006
3.106000e+000,-5.563778e-006
3.107000e+000,1.558523e-005
3.108000e+000,2.492984e-006
3.109000e+000,1.054975e-005
3.110000e+000,1.994931e-005
3.111000e+000,6.185668e-006
3.112000e+000,-4.220985e-006
3.113000e+000,1.054975e-005
3.114000e+000,1.524953e-005
3.115000e+000,1.323534e-005
3.116000e+000,1.821588e-006
3.117000e+000,-1.832032e-005
3.118000e+000,-3.006977e-005
3.119000e+000,-3.241966e-005
3.120000e+000,1.659232e-005
3.121000e+000,-3.611234e-005
3.122000e+000,-5.121877e-005
3.123000e+000,-1.630613e-005
3.124000e+000,1.457813e-005
3.125000e+000,4.277680e-005
3.126000e+000,2.733467e-005
3.127000e+000,8.199860e-006
3.128000e+000,3.164381e-006
3.129000e+000,-2.033451e-005
3.130000e+000,1.357103e-005
3.131000e+000,5.083357e-005
3.132000e+000,2.532048e-005
3.133000e+000,1.021405e-005
3.134000e+000,8.144938e-007
3.135000e+000,-3.174826e-005
3.136000e+000,-4.556684e-006
3.137000e+000,4.787956e-007
3.138000e+000,-3.241966e-005
3.139000e+000,-2.469859e-005
3.140000e+000,1.390673e-005
3.141000e+000,1.927791e-005
3.142000e+000,1.961361e-005
3.143000e+000,-1.026356e-005
3.144000e+000,-2.872697e-005
3.145000e+000,-7.102498e-005
3.146000e+000,-2.738418e-005
3.147000e+000,4.344820e-005
3.148000e+000,3.941982e-005
3.149000e+000,1.065595e-004
3.150000e+000,1.015240e-004
3.151000e+000,-1.160635e-005
3.152000e+000,-2.973407e-005
3.153000e+000,-5.121877e-005
3.154000e+000,-1.160635e-005
3.155000e+000,-3.241966e-005
3.156000e+000,-4.987598e-005
3.157000e+000,-4.047642e-005
3.158000e+000,-2.704848e-005
3.159000e+000,-2.234870e-005
3.160000e+000,-4.383341e-005
3.161000e+000,-2.503429e-005
3.162000e+000,3.002026e-005
3.163000e+000,8.339632e-005
3.164000e+000,4.915507e-005
3.165000e+000,1.189254e-005
3.166000e+000,4.507177e-006
3.167000e+000,-2.436290e-005
3.168000e+000,-4.181921e-005
3.169000e+000,-4.892382e-006
3.170000e+000,4.378390e-005
3.171000e+000,2.297059e-005
3.172000e+000,6.185668e-006
3.173000e+000,4.507177e-006
3.174000e+000,-3.885287e-006
3.175000e+000,-9.592163e-006
3.176000e+000,-1.294914e-005
3.177000e+000,-1.395624e-005
3.178000e+000,-1.395624e-005
3.179000e+000,-1.194205e-005
3.180000e+000,-1.227775e-005
3.181000e+000,-6.906571e-006
3.182000e+000,3.807702e-005
3.183000e+000,4.411960e-005
3.184000e+000,-1.199699e-006
3.185000e+000,3.835781e-006
3.186000e+000,7.192766e-006
3.187000e+000,-8.249363e-006
3.188000e+000,-1.362054e-005
3.189000e+000,6.521366e-006
3.190000e+000,3.606283e-005
3.191000e+000,3.164381e-006
3.192000e+000,-7.068928e-005
3.193000e+000,-1.563474e-005
3.194000e+000,3.673423e-005
3.195000e+000,4.949077e-005
3.196000e+000,1.038739e-004
3.197000e+000,2.733467e-005
3.198000e+000,-2.570569e-005
3.199000e+000,-3.107687e-005
3.200000e+000,-5.155447e-005
3.201000e+000,-3.476954e-005
3.202000e+000,-2.100591e-005
3.203000e+000,-8.249363e-006
3.204000e+000,5.849969e-006
3.205000e+000,-2.878189e-006
3.206000e+000,-1.093496e-005
3.207000e+000,-1.328484e-005
3.208000e+000,-2.839127e-005
3.209000e+000,-3.980502e-005
3.210000e+000,-2.469859e-005
3.211000e+000,-5.563778e-006
3.212000e+000,1.155684e-005
3.213000e+000,6.761849e-005
3.214000e+000,1.173019e-004
3.215000e+000,-1.630613e-005
3.216000e+000,-2.067021e-005
3.217000e+000,-2.302010e-005
3.218000e+000,-3.577664e-005
3.219000e+000,-2.878189e-006
3.220000e+000,1.054975e-005
3.221000e+000,-3.549589e-006
3.222000e+000,-5.563778e-006
3.223000e+000,5.178573e-006
3.224000e+000,3.164381e-006
3.225000e+000,1.289964e-005
3.226000e+000,9.206954e-006
3.227000e+000,-1.429194e-005
3.228000e+000,-5.563778e-006
3.229000e+000,-2.637708e-005
3.230000e+000,-3.241966e-005
3.231000e+000,2.297059e-005
3.232000e+000,1.457813e-005
3.233000e+000,6.521366e-006
3.234000e+000,-1.227775e-005
3.235000e+000,-1.926043e-007
3.236000e+000,3.835781e-006
3.237000e+000,-5.563778e-006
3.238000e+000,1.592092e-005
3.239000e+000,2.532048e-005
3.240000e+000,5.849969e-006
3.241000e+000,-1.328484e-005
3.242000e+000,-1.496333e-005
3.243000e+000,3.337725e-005
3.244000e+000,4.613379e-005
3.245000e+000,9.206954e-006
3.246000e+000,1.122115e-005
3.247000e+000,1.821588e-006
3.248000e+000,-4.892382e-006
3.249000e+000,-1.926043e-007
3.250000e+000,-1.899172e-005
3.251000e+000,-1.630613e-005
3.252000e+000,-1.865602e-005
3.253000e+000,-5.899476e-006
3.254000e+000,-1.093496e-005
3.255000e+000,-9.592163e-006
3.256000e+000,-1.395624e-005
3.257000e+000,-2.570569e-005
3.258000e+000,1.054975e-005
3.259000e+000,2.129210e-005
3.260000e+000,3.874842e-005
3.261000e+000,4.479099e-005
3.262000e+000,2.129210e-005
3.263000e+000,-4.220985e-006
3.264000e+000,-8.249363e-006
3.265000e+000,-2.637708e-005
3.266000e+000,-3.443385e-005
3.267000e+000,1.189254e-005
3.268000e+000,3.874842e-005
3.269000e+000,-6.800370e-005
3.270000e+000,-1.002307e-004
3.271000e+000,-4.383341e-005
3.272000e+000,3.304155e-005
3.273000e+000,6.224731e-005
3.274000e+000,1.193161e-004
3.275000e+000,7.466816e-005
3.276000e+000,-4.450481e-005
3.277000e+000,-6.934649e-005
3.278000e+000,-4.920458e-005
3.279000e+000,-1.160635e-005
3.280000e+000,1.558523e-005
3.281000e+000,-1.261345e-005
3.282000e+000,-3.241966e-005
3.283000e+000,-2.604139e-005
3.284000e+000,-1.462763e-005
3.285000e+000,2.800607e-005
3.286000e+000,5.217636e-005
3.287000e+000,3.673423e-005
3.288000e+000,7.528464e-006
3.289000e+000,-8.640005e-007
3.290000e+000,1.894221e-005
3.291000e+000,1.558523e-005
3.292000e+000,1.390673e-005
3.293000e+000,-2.206793e-006
3.294000e+000,-2.637708e-005
3.295000e+000,-1.160635e-005
3.296000e+000,-8.920767e-006
3.297000e+000,-1.764893e-005
3.298000e+000,-1.127065e-005
3.299000e+000,-2.704848e-005
3.300000e+000,-3.913363e-005
3.301000e+000,7.864162e-006
3.302000e+000,5.016217e-005
3.303000e+000,4.646949e-005
3.304000e+000,1.323534e-005
3.305000e+000,-2.878189e-006
3.306000e+000,2.157286e-006
3.307000e+000,-1.535397e-006
3.308000e+000,1.122115e-005
3.309000e+000,7.192766e-006
3.310000e+000,-4.892382e-006
3.311000e+000,-9.592163e-006
3.312000e+000,-1.865602e-005
3.313000e+000,-2.839127e-005
3.314000e+000,-2.369150e-005
3.315000e+000,-8.640005e-007
3.316000e+000,9.206954e-006
3.317000e+000,1.122115e-005
3.318000e+000,-6.906571e-006
3.319000e+000,1.994931e-005
3.320000e+000,2.157286e-006
3.321000e+000,-5.860414e-005
3.322000e+000,-1.731323e-005
3.323000e+000,5.553335e-005
3.324000e+000,2.934886e-005
3.325000e+000,2.498478e-005
3.326000e+000,2.492984e-006
3.327000e+000,7.864162e-006
3.328000e+000,1.592092e-005
3.329000e+000,2.800607e-005
3.330000e+000,1.289964e-005
3.331000e+000,-2.100591e-005
3.332000e+000,-2.402720e-005
3.333000e+000,-2.302010e-005
3.334000e+000,-3.107687e-005
3.335000e+000,-3.913363e-005
3.336000e+000,-9.592163e-006
3.337000e+000,1.457813e-005
3.338000e+000,1.821588e-006
3.339000e+000,3.164381e-006
3.340000e+000,3.835781e-006
3.341000e+000,6.521366e-006
3.342000e+000,3.164381e-006
3.343000e+000,-8.640005e-007
3.344000e+000,8.535558e-006
3.345000e+000,5.849969e-006
3.346000e+000,-8.640005e-007
3.347000e+000,-2.878189e-006
3.348000e+000,-2.302010e-005
3.349000e+000,-3.711944e-005
3.350000e+000,3.270585e-005
3.351000e+000,7.063978e-005
3.352000e+000,-2.302010e-005
3.353000e+000,-4.047642e-005
3.354000e+000,-3.544094e-005
3.355000e+000,2.492984e-006
3.356000e+000,-1.093496e-005
3.357000e+000,-1.871095e-006
3.358000e+000,1.726372e-005
3.359000e+000,1.592092e-005
3.360000e+000,2.800607e-005
3.361000e+000,4.512669e-005
3.362000e+000,3.404864e-005
3.363000e+000,5.586904e-005
3.364000e+000,-7.577967e-006
3.365000e+000,-5.994693e-005
3.366000e+000,-2.234870e-005
3.367000e+000,3.835781e-006
3.368000e+000,-6.095403e-005
3.369000e+000,-4.752609e-005
3.370000e+000,6.521366e-006
3.371000e+000,2.464908e-005
3.372000e+000,6.224731e-005
3.373000e+000,3.874842e-005
3.374000e+000,-9.592163e-006
3.375000e+000,2.492984e-006
3.376000e+000,-1.630613e-005
3.377000e+000,2.062070e-005
3.378000e+000,3.136305e-005
3.379000e+000,-3.549589e-006
3.380000e+000,-4.220985e-006
3.381000e+000,-1.026356e-005
3.382000e+000,-8.920767e-006
3.383000e+000,-9.592163e-006
3.384000e+000,-6.906571e-006
3.385000e+000,-1.563474e-005
3.386000e+000,-3.040547e-005
3.387000e+000,-4.892382e-006
3.388000e+000,-1.328484e-005
3.389000e+000,-8.249363e-006
3.390000e+000,-1.535397e-006
3.391000e+000,6.521366e-006
3.392000e+000,3.164381e-006
3.393000e+000,-4.220985e-006
3.394000e+000,-2.100591e-005
3.395000e+000,-4.556684e-006
3.396000e+000,1.457813e-005
3.397000e+000,2.263489e-005
3.398000e+000,3.438434e-005
3.399000e+000,1.592092e-005
3.400000e+000,1.054975e-005
3.401000e+000,-9.592163e-006
3.402000e+000,-1.093496e-005
3.403000e+000,-1.127065e-005
3.404000e+000,3.835781e-006
3.405000e+000,3.164381e-006
3.406000e+000,-1.798462e-005
3.407000e+000,-1.294914e-005
3.408000e+000,-2.878189e-006
3.409000e+000,3.500079e-006
3.410000e+000,7.864162e-006
3.411000e+000,3.164381e-006
3.412000e+000,1.150192e-006
3.413000e+000,1.021405e-005
3.414000e+000,1.054975e-005
3.415000e+000,-1.362054e-005
3.416000e+000,-1.932742e-005
3.417000e+000,-2.167730e-005
3.418000e+000,-2.436290e-005
3.419000e+000,5.178573e-006
3.420000e+000,8.440341e-005
3.421000e+000,9.206954e-006
3.422000e+000,-1.395624e-005
3.423000e+000,-1.535397e-006
3.424000e+000,-2.704848e-005
3.425000e+000,-2.369150e-005
3.426000e+000,-1.798462e-005
3.427000e+000,3.835781e-006
3.428000e+000,2.397769e-005
3.429000e+000,2.263489e-005
3.430000e+000,1.189254e-005
3.431000e+000,5.178573e-006
3.432000e+000,1.927791e-005
3.433000e+000,-3.946933e-005
3.434000e+000,-9.955935e-005
3.435000e+000,-7.337487e-005
3.436000e+000,-3.644804e-005
3.437000e+000,3.270585e-005
3.438000e+000,1.052167e-004
3.439000e+000,1.065595e-004
3.440000e+000,6.929698e-005
3.441000e+000,-6.906571e-006
3.442000e+000,-1.966311e-005
3.443000e+000,2.263489e-005
3.444000e+000,4.949077e-005
3.445000e+000,1.150192e-006
3.446000e+000,-5.121877e-005
3.447000e+000,-5.726134e-005
3.448000e+000,-2.234870e-005
3.449000e+000,-3.213891e-006
3.450000e+000,2.934886e-005
3.451000e+000,2.934886e-005
3.452000e+000,2.492984e-006
3.453000e+000,-2.542491e-006
3.454000e+000,-4.220985e-006
3.455000e+000,-1.926043e-007
3.456000e+000,-8.585068e-006
3.457000e+000,-5.899476e-006
3.458000e+000,-2.878189e-006
3.459000e+000,-1.227775e-005
3.460000e+000,-1.630613e-005
3.461000e+000,-3.107687e-005
3.462000e+000,-2.234870e-005
3.463000e+000,-1.429194e-005
3.464000e+000,-1.362054e-005
3.465000e+000,9.878351e-006
3.466000e+000,1.827081e-005
3.467000e+000,9.878351e-006
3.468000e+000,-6.906571e-006
3.469000e+000,-1.597043e-005
3.470000e+000,-9.592163e-006
3.471000e+000,8.199860e-006
3.472000e+000,7.030408e-005
3.473000e+000,4.507177e-006
3.474000e+000,-5.558285e-005
3.475000e+000,-1.535397e-006
3.476000e+000,1.150192e-006
3.477000e+000,-1.160635e-005
3.478000e+000,2.867747e-005
3.479000e+000,6.694709e-005
3.480000e+000,1.206589e-004
3.481000e+000,3.404864e-005
3.482000e+000,-9.015980e-005
3.483000e+000,-1.042591e-004
3.484000e+000,-9.955935e-005
3.485000e+000,-9.284539e-005
3.486000e+000,-2.100591e-005
3.487000e+000,4.378390e-005
3.488000e+000,5.687614e-005
3.489000e+000,3.035596e-005
3.490000e+000,1.558523e-005
3.491000e+000,3.164381e-006
3.492000e+000,6.185668e-006
3.493000e+000,3.740563e-005
3.494000e+000,4.210541e-005
3.495000e+000,-1.926043e-007
3.496000e+000,-1.227775e-005
3.497000e+000,-3.275536e-005
3.498000e+000,-6.598951e-005
3.499000e+000,-1.496333e-005
3.500000e+000,6.627570e-005
3.501000e+000,6.627570e-005
3.502000e+000,5.553335e-005
3.503000e+000,-3.107687e-005
3.504000e+000,-1.150015e-004
3.505000e+000,-5.524715e-005
3.506000e+000,4.411960e-005
3.507000e+000,8.977459e-005
3.508000e+000,8.809610e-005
3.509000e+000,2.532048e-005
3.510000e+000,4.842875e-006
3.511000e+000,-8.249363e-006
3.512000e+000,-2.369150e-005
3.513000e+000,-1.899172e-005
3.514000e+000,-1.261345e-005
3.515000e+000,-2.167730e-005
3.516000e+000,-2.369150e-005
3.517000e+000,-1.764893e-005
3.518000e+000,-6.906571e-006
3.519000e+000,6.521366e-006
3.520000e+000,-5.899476e-006
3.521000e+000,-7.577967e-006
3.522000e+000,-1.597043e-005
3.523000e+000,1.150192e-006
3.524000e+000,2.498478e-005
3.525000e+000,1.726372e-005
3.526000e+000,1.054975e-005
3.527000e+000,-2.839127e-005
3.528000e+000,-2.134160e-005
3.529000e+000,-1.764893e-005
3.530000e+000,-2.604139e-005
3.531000e+000,1.256394e-005
3.532000e+000,3.673423e-005
3.533000e+000,4.009122e-005
3.534000e+000,5.849969e-006
3.535000e+000,1.150192e-006
3.536000e+000,-4.220985e-006
3.537000e+000,-1.227775e-005
3.538000e+000,-2.503429e-005
3.539000e+000,-2.436290e-005
3.540000e+000,1.994931e-005
3.541000e+000,1.927791e-005
3.542000e+000,2.464908e-005
3.543000e+000,-4.220985e-006
3.544000e+000,-2.201300e-005
3.545000e+000,-4.892382e-006
3.546000e+000,-3.549589e-006
3.547000e+000,-1.362054e-005
3.548000e+000,-1.328484e-005
3.549000e+000,-2.402720e-005
3.550000e+000,-4.081212e-005
3.551000e+000,-6.128973e-005
3.552000e+000,-2.234870e-005
3.553000e+000,6.761849e-005
3.554000e+000,7.903224e-005
3.555000e+000,4.747658e-005
3.556000e+000,4.042691e-005
3.557000e+000,1.079023e-004
3.558000e+000,2.330629e-005
3.559000e+000,-3.040547e-005
3.560000e+000,-3.812653e-005
3.561000e+000,-3.577664e-005
3.562000e+000,-2.839127e-005
3.563000e+000,-9.653807e-005
3.564000e+000,-9.553097e-005
3.565000e+000,-2.503429e-005
3.566000e+000,2.666328e-005
3.567000e+000,1.042096e-004
3.568000e+000,1.119307e-004
3.569000e+000,5.284776e-005
3.570000e+000,-2.100591e-005
3.571000e+000,-5.088308e-005
3.572000e+000,-3.510524e-005
3.573000e+000,-6.800370e-005
3.574000e+000,-1.865602e-005
3.575000e+000,8.641760e-005
3.576000e+000,5.956173e-005
3.577000e+000,2.095640e-005
3.578000e+000,1.189254e-005
3.579000e+000,-3.275536e-005
3.580000e+000,-3.241966e-005
3.581000e+000,-1.899172e-005
3.582000e+000,1.289964e-005
3.583000e+000,6.521366e-006
3.584000e+000,-2.234870e-005
3.585000e+000,-3.107687e-005
3.586000e+000,-9.592163e-006
3.587000e+000,1.054975e-005
3.588000e+000,3.164381e-006
3.589000e+000,1.625662e-005
3.590000e+000,1.860651e-005
3.591000e+000,5.419055e-005
3.592000e+000,-2.503429e-005
3.593000e+000,-6.330391e-005
3.594000e+000,-4.047642e-005
3.595000e+000,-3.376245e-005
3.596000e+000,-1.429194e-005
3.597000e+000,-1.535397e-006
3.598000e+000,8.144938e-007
3.599000e+000,7.864162e-006
3.600000e+000,1.793512e-005
3.601000e+000,1.927791e-005
3.602000e+000,5.178573e-006
3.603000e+000,5.849969e-006
3.604000e+000,-2.201300e-005
3.605000e+000,-8.920767e-006
3.606000e+000,4.143401e-005
3.607000e+000,3.002026e-005
3.608000e+000,2.828683e-006
3.609000e+000,-1.899172e-005
3.610000e+000,-7.577967e-006
3.611000e+000,4.507177e-006
3.612000e+000,1.189254e-005
3.613000e+000,1.558523e-005
3.614000e+000,2.632758e-005
3.615000e+000,1.256394e-005
3.616000e+000,8.144938e-007
3.617000e+000,-1.926043e-007
3.618000e+000,2.157286e-006
3.619000e+000,-1.926043e-007
3.620000e+000,-3.376245e-005
3.621000e+000,-5.054738e-005
3.622000e+000,-1.026356e-005
3.623000e+000,2.229920e-005
3.624000e+000,1.122115e-005
3.625000e+000,-2.234870e-005
3.626000e+000,-3.980502e-005
3.627000e+000,7.768944e-005
3.628000e+000,1.575857e-004
3.629000e+000,5.654044e-005
3.630000e+000,2.492984e-006
3.631000e+000,-7.169638e-005
3.632000e+000,-9.888795e-005
3.633000e+000,-5.927554e-005
3.634000e+000,-3.913363e-005
3.635000e+000,-1.199699e-006
3.636000e+000,1.994931e-005
3.637000e+000,4.546239e-005
3.638000e+000,3.673423e-005
3.639000e+000,1.222824e-005
3.640000e+000,4.507177e-006
3.641000e+000,-2.878189e-006
3.642000e+000,1.821588e-006
3.643000e+000,-6.128973e-005
3.644000e+000,-4.249061e-005
3.645000e+000,1.323534e-005
3.646000e+000,3.500079e-006
3.647000e+000,3.164381e-006
3.648000e+000,1.088545e-005
3.649000e+000,-2.302010e-005
3.650000e+000,4.787956e-007
3.651000e+000,2.492984e-006
3.652000e+000,1.323534e-005
3.653000e+000,2.699897e-005
3.654000e+000,2.162780e-005
3.655000e+000,-3.213891e-006
3.656000e+000,-7.913665e-006
3.657000e+000,3.164381e-006
3.658000e+000,2.364199e-005
3.659000e+000,1.726372e-005
3.660000e+000,-1.832032e-005
3.661000e+000,-4.081212e-005
3.662000e+000,-1.697753e-005
3.663000e+000,1.485890e-006
3.664000e+000,2.464908e-005
3.665000e+000,2.397769e-005
3.666000e+000,-3.174826e-005
3.667000e+000,-2.604139e-005
3.668000e+000,2.129210e-005
3.669000e+000,3.740563e-005
3.670000e+000,1.793512e-005
3.671000e+000,-2.206793e-006
3.672000e+000,-4.383341e-005
3.673000e+000,-5.121877e-005
3.674000e+000,1.558523e-005
3.675000e+000,1.485890e-006
3.676000e+000,1.821588e-006
3.677000e+000,2.492984e-006
3.678000e+000,-2.878189e-006
3.679000e+000,-2.878189e-006
3.680000e+000,-3.885287e-006
3.681000e+000,-1.535397e-006
3.682000e+000,-2.302010e-005
3.683000e+000,1.821588e-006
3.684000e+000,1.390673e-005
3.685000e+000,-3.409815e-005
3.686000e+000,-8.249363e-006
3.687000e+000,7.768944e-005
3.688000e+000,3.606283e-005
3.689000e+000,-2.637708e-005
3.690000e+000,1.659232e-005
3.691000e+000,1.122115e-005
3.692000e+000,-2.878189e-006
3.693000e+000,1.793512e-005
3.694000e+000,2.157286e-006
3.695000e+000,6.963268e-005
3.696000e+000,-6.906571e-006
3.697000e+000,-8.780990e-005
3.698000e+000,-1.926043e-007
3.699000e+000,3.539144e-005
3.700000e+000,1.692802e-005
3.701000e+000,2.464908e-005
3.702000e+000,1.994931e-005
3.703000e+000,2.666328e-005
3.704000e+000,1.821588e-006
3.705000e+000,-3.107687e-005
3.706000e+000,-5.256157e-005
3.707000e+000,-7.673186e-005
3.708000e+000,-5.860414e-005
3.709000e+000,4.787956e-007
3.710000e+000,3.606283e-005
3.711000e+000,3.164381e-006
3.712000e+000,-4.047642e-005
3.713000e+000,-2.201300e-005
3.714000e+000,-7.577967e-006
3.715000e+000,-1.832032e-005
3.716000e+000,-7.505337e-005
3.717000e+000,-4.719039e-005
3.718000e+000,4.378390e-005
3.719000e+000,9.850275e-005
3.720000e+000,1.246872e-004
3.721000e+000,5.217636e-005
3.722000e+000,-4.685469e-005
3.723000e+000,-8.076024e-005
3.724000e+000,1.189254e-005
3.725000e+000,2.062070e-005
3.726000e+000,6.963268e-005
3.727000e+000,6.224731e-005
3.728000e+000,1.692802e-005
3.729000e+000,5.849969e-006
3.730000e+000,-5.899476e-006
3.731000e+000,-1.496333e-005
3.732000e+000,-1.764893e-005
3.733000e+000,-1.160635e-005
3.734000e+000,-2.839127e-005
3.735000e+000,-7.577967e-006
3.736000e+000,1.524953e-005
3.737000e+000,-1.535397e-006
3.738000e+000,-7.577967e-006
3.739000e+000,-1.294914e-005
3.740000e+000,-2.570569e-005
3.741000e+000,-8.747420e-005
3.742000e+000,-5.457576e-005
3.743000e+000,1.558523e-005
3.744000e+000,4.613379e-005
3.745000e+000,9.246018e-005
3.746000e+000,4.613379e-005
3.747000e+000,-9.592163e-006
3.748000e+000,-1.026356e-005
3.749000e+000,-3.549589e-006
3.750000e+000,-4.220985e-006
3.751000e+000,1.524953e-005
3.752000e+000,9.878351e-006
3.753000e+000,1.827081e-005
3.754000e+000,-1.926043e-007
3.755000e+000,-2.436290e-005
3.756000e+000,-2.671278e-005
3.757000e+000,-3.040547e-005
3.758000e+000,-3.611234e-005
3.759000e+000,-3.913363e-005
3.760000e+000,1.592092e-005
3.761000e+000,1.005169e-004
3.762000e+000,3.270585e-005
3.763000e+000,-5.228080e-006
3.764000e+000,5.849969e-006
3.765000e+000,-8.249363e-006
3.766000e+000,-4.484050e-005
3.767000e+000,-4.249061e-005
3.768000e+000,-2.973407e-005
3.769000e+000,-5.899476e-006
3.770000e+000,-1.764893e-005
3.771000e+000,2.229920e-005
3.772000e+000,7.164687e-005
3.773000e+000,-7.913665e-006
3.774000e+000,-1.764893e-005
3.775000e+000,5.178573e-006
3.776000e+000,2.492984e-006
3.777000e+000,1.457813e-005
3.778000e+000,1.390673e-005
3.779000e+000,3.500079e-006
3.780000e+000,8.199860e-006
3.781000e+000,-2.671278e-005
3.782000e+000,-3.174826e-005
3.783000e+000,-2.704848e-005
3.784000e+000,4.076261e-005
3.785000e+000,4.842875e-006
3.786000e+000,-3.913363e-005
3.787000e+000,-1.764893e-005
3.788000e+000,-2.436290e-005
3.789000e+000,-4.920458e-005
3.790000e+000,-2.503429e-005
3.791000e+000,2.699897e-005
3.792000e+000,6.023312e-005
3.793000e+000,6.426151e-005
3.794000e+000,5.519765e-005
3.795000e+000,4.507177e-006
3.796000e+000,-2.100591e-005
3.797000e+000,7.864162e-006
3.798000e+000,-6.235174e-006
3.799000e+000,-1.026356e-005
3.800000e+000,-5.726134e-005
3.801000e+000,-8.249363e-006
3.802000e+000,5.083357e-005
3.803000e+000,4.949077e-005
3.804000e+000,4.076261e-005
3.805000e+000,2.828683e-006
3.806000e+000,-1.832032e-005
3.807000e+000,-2.570569e-005
3.808000e+000,-1.294914e-005
3.809000e+000,-4.220985e-006
3.810000e+000,-1.093496e-005
3.811000e+000,-2.839127e-005
3.812000e+000,5.178573e-006
3.813000e+000,3.706993e-005
3.814000e+000,7.864162e-006
3.815000e+000,-1.597043e-005
3.816000e+000,-6.906571e-006
3.817000e+000,-1.059926e-005
3.818000e+000,-2.469859e-005
3.819000e+000,-1.630613e-005
3.820000e+000,7.192766e-006
3.821000e+000,1.150192e-006
3.822000e+000,1.726372e-005
3.823000e+000,3.136305e-005
3.824000e+000,3.835781e-006
3.825000e+000,1.390673e-005
3.826000e+000,1.524953e-005
3.827000e+000,-1.496333e-005
3.828000e+000,-1.395624e-005
3.829000e+000,-4.316201e-005
3.830000e+000,-5.155447e-005
3.831000e+000,-1.395624e-005
3.832000e+000,2.934886e-005
3.833000e+000,2.330629e-005
3.834000e+000,9.950985e-005
3.835000e+000,6.627570e-005
3.836000e+000,-4.383341e-005
3.837000e+000,-5.021167e-005
3.838000e+000,-5.155447e-005
3.839000e+000,-2.839127e-005
3.840000e+000,-7.913665e-006
3.841000e+000,-2.167730e-005
3.842000e+000,1.189254e-005
3.843000e+000,2.364199e-005
3.844000e+000,1.088545e-005
3.845000e+000,1.122115e-005
3.846000e+000,1.054975e-005
3.847000e+000,1.457813e-005
3.848000e+000,2.062070e-005
3.849000e+000,9.206954e-006
3.850000e+000,-2.704848e-005
3.851000e+000,-7.236777e-005
3.852000e+000,-4.786179e-005
3.853000e+000,-6.906571e-006
3.854000e+000,3.807702e-005
3.855000e+000,3.841272e-005
3.856000e+000,3.874842e-005
3.857000e+000,3.337725e-005
3.858000e+000,2.492984e-006
3.859000e+000,-3.885287e-006
3.860000e+000,-2.878189e-006
3.861000e+000,-2.973407e-005
3.862000e+000,-3.208396e-005
3.863000e+000,-1.227775e-005
3.864000e+000,-2.033451e-005
3.865000e+000,1.457813e-005
3.866000e+000,2.492984e-006
3.867000e+000,4.479099e-005
3.868000e+000,4.076261e-005
3.869000e+000,1.524953e-005
3.870000e+000,2.129210e-005
3.871000e+000,1.592092e-005
3.872000e+000,1.054975e-005
3.873000e+000,5.514271e-006
3.874000e+000,-2.206793e-006
3.875000e+000,-1.871095e-006
3.876000e+000,-1.395624e-005
3.877000e+000,8.144938e-007
3.878000e+000,-1.764893e-005
3.879000e+000,-4.450481e-005
3.880000e+000,-3.107687e-005
3.881000e+000,-1.496333e-005
3.882000e+000,-1.429194e-005
3.883000e+000,-4.081212e-005
3.884000e+000,-3.644804e-005
3.885000e+000,-1.093496e-005
3.886000e+000,2.968456e-005
3.887000e+000,7.864162e-006
3.888000e+000,-1.832032e-005
3.889000e+000,3.908412e-005
3.890000e+000,8.171783e-005
3.891000e+000,2.464908e-005
3.892000e+000,-3.510524e-005
3.893000e+000,3.337725e-005
3.894000e+000,1.075666e-004
3.895000e+000,2.532048e-005
3.896000e+000,1.150192e-006
3.897000e+000,-3.946933e-005
3.898000e+000,-7.773896e-005
3.899000e+000,-6.833939e-005
3.900000e+000,-2.704848e-005
3.901000e+000,-5.899476e-006
3.902000e+000,1.793512e-005
3.903000e+000,1.289964e-005
3.904000e+000,1.323534e-005
3.905000e+000,-1.026356e-005
3.906000e+000,-4.220985e-006
3.907000e+000,6.185668e-006
3.908000e+000,3.002026e-005
3.909000e+000,1.994931e-005
3.910000e+000,-1.261345e-005
3.911000e+000,-6.733230e-005
3.912000e+000,-8.613141e-005
3.913000e+000,-3.980502e-005
3.914000e+000,4.842875e-006
3.915000e+000,7.864162e-006
3.916000e+000,-1.899172e-005
3.917000e+000,1.457813e-005
3.918000e+000,6.426151e-005
3.919000e+000,6.392581e-005
3.920000e+000,3.841272e-005
3.921000e+000,4.009122e-005
3.922000e+000,3.706993e-005
3.923000e+000,1.390673e-005
3.924000e+000,-1.496333e-005
3.925000e+000,-6.498241e-005
3.926000e+000,-3.107687e-005
3.927000e+000,1.659232e-005
3.928000e+000,2.263489e-005
3.929000e+000,3.874842e-005
3.930000e+000,1.793512e-005
3.931000e+000,-2.206793e-006
3.932000e+000,-1.535397e-006
3.933000e+000,-5.228080e-006
3.934000e+000,-1.160635e-005
3.935000e+000,-1.563474e-005
3.936000e+000,-1.496333e-005
3.937000e+000,-1.563474e-005
3.938000e+000,-2.771988e-005
3.939000e+000,-7.471766e-005
3.940000e+000,-2.436290e-005
3.941000e+000,1.088545e-005
3.942000e+000,3.136305e-005
3.943000e+000,4.143401e-005
3.944000e+000,7.864162e-006
3.945000e+000,1.524953e-005
3.946000e+000,2.834177e-005
3.947000e+000,3.606283e-005
3.948000e+000,4.311250e-005
3.949000e+000,1.994931e-005
3.950000e+000,1.150192e-006
3.951000e+000,-4.556684e-006
3.952000e+000,-8.249363e-006
3.953000e+000,-2.402720e-005
3.954000e+000,-2.906267e-005
3.955000e+000,-1.328484e-005
3.956000e+000,-1.926043e-007
3.957000e+000,9.878351e-006
3.958000e+000,6.521366e-006
3.959000e+000,-1.227775e-005
3.960000e+000,-4.220985e-006
3.961000e+000,6.521366e-006
3.962000e+000,-1.664183e-005
3.963000e+000,-2.973407e-005
3.964000e+000,-2.167730e-005
3.965000e+000,-2.302010e-005
3.966000e+000,-8.920767e-006
3.967000e+000,6.185668e-006
3.968000e+000,-4.249061e-005
3.969000e+000,-2.839127e-005
3.970000e+000,8.171783e-005
3.971000e+000,1.260300e-004
3.972000e+000,-2.738418e-005
3.973000e+000,-6.901079e-005
3.974000e+000,-1.059926e-005
3.975000e+000,6.291871e-005
3.976000e+000,4.009122e-005
3.977000e+000,-4.892382e-006
3.978000e+000,-1.160635e-005
3.979000e+000,8.871256e-006
3.980000e+000,-1.697753e-005
3.981000e+000,-3.376245e-005
3.982000e+000,-1.932742e-005
3.983000e+000,-2.542491e-006
3.984000e+000,-2.134160e-005
3.985000e+000,-5.424006e-005
3.986000e+000,-3.711944e-005
3.987000e+000,4.210541e-005
3.988000e+000,4.949077e-005
3.989000e+000,4.613379e-005
3.990000e+000,2.733467e-005
3.991000e+000,-6.570872e-006
3.992000e+000,5.849969e-006
3.993000e+000,7.192766e-006
3.994000e+000,1.189254e-005
3.995000e+000,-4.220985e-006
3.996000e+000,-1.093496e-005
3.997000e+000,-2.771988e-005
3.998000e+000,-2.906267e-005
3.999000e+000,-1.798462e-005
4.000000e+000,3.835781e-006
4.001000e+000,-1.093496e-005
4.002000e+000,-1.966311e-005
4.003000e+000,4.842875e-006
4.004000e+000,1.726372e-005
4.005000e+000,2.157286e-006
4.006000e+000,-2.206793e-006
4.007000e+000,6.521366e-006
4.008000e+000,-2.973407e-005
4.009000e+000,-2.369150e-005
4.010000e+000,-1.294914e-005
4.011000e+000,7.528464e-006
4.012000e+000,3.874842e-005
4.013000e+000,3.136305e-005
4.014000e+000,3.136305e-005
4.015000e+000,3.069166e-005
4.016000e+000,4.714088e-005
4.017000e+000,-3.644804e-005
4.018000e+000,-8.008884e-005
4.019000e+000,-3.913363e-005
4.020000e+000,1.289964e-005
4.021000e+000,2.699897e-005
4.022000e+000,2.028500e-005
4.023000e+000,5.849969e-006
4.024000e+000,-1.194205e-005
4.025000e+000,7.864162e-006
4.026000e+000,3.002026e-005
4.027000e+000,3.337725e-005
4.028000e+000,-1.160635e-005
4.029000e+000,-2.973407e-005
4.030000e+000,-2.302010e-005
4.031000e+000,-1.966311e-005
4.032000e+000,-2.167730e-005
4.033000e+000,-1.926043e-007
4.034000e+000,3.270585e-005
4.035000e+000,1.726372e-005
4.036000e+000,3.673423e-005
4.037000e+000,4.646949e-005
4.038000e+000,-1.026356e-005
4.039000e+000,-2.637708e-005
4.040000e+000,-3.779084e-005
4.041000e+000,-3.443385e-005
4.042000e+000,6.862559e-005
4.043000e+000,5.351915e-005
4.044000e+000,-7.404626e-005
4.045000e+000,-8.747420e-005
4.046000e+000,-7.438196e-005
4.047000e+000,2.492984e-006
4.048000e+000,6.795419e-005
4.049000e+000,7.366106e-005
4.050000e+000,7.097548e-005
4.051000e+000,3.304155e-005
4.052000e+000,-2.771988e-005
4.053000e+000,-4.517620e-005
4.054000e+000,-4.892382e-006
4.055000e+000,3.404864e-005
4.056000e+000,2.800607e-005
4.057000e+000,2.162780e-005
