# Label: Avanti Sensor 1: EMG 1->RMean->Subset Sampling frequency: 1.000000e+003 Number of points: 5000 X start: 0.000000e+000 Unit: V Domain Unit: s
X [s],Avanti Sensor 1: EMG 1->RMean->Subset [V]
0.000000e+000,2.385716e-005
1.000000e-003,1.848599e-005
2.000000e-003,2.452856e-005
3.000000e-003,1.378621e-005
4.000000e-003,-9.041290e-006
5.000000e-003,-1.340537e-005
6.000000e-003,-2.750470e-005
7.000000e-003,-6.141025e-005
8.000000e-003,-5.234639e-005
9.000000e-003,-3.556146e-005
1.000000e-002,-2.347632e-005
1.100000e-002,1.949308e-005
1.200000e-002,4.937025e-005
1.300000e-002,6.078400e-005
1.400000e-002,6.749797e-005
1.500000e-002,6.212679e-005
1.600000e-002,5.876981e-005
1.700000e-002,7.421194e-005
1.800000e-002,5.541282e-005
1.900000e-002,3.715257e-006
2.000000e-002,-1.776945e-005
2.100000e-002,-2.045503e-005
2.200000e-002,-3.119739e-005
2.300000e-002,-4.529672e-005
2.400000e-002,-5.268209e-005
2.500000e-002,-3.522577e-005
2.600000e-002,-3.119739e-005
2.700000e-002,-2.884749e-005
2.800000e-002,-2.246922e-005
2.900000e-002,-1.844085e-005
3.000000e-002,-1.655920e-006
3.100000e-002,5.742701e-005
3.200000e-002,6.011260e-005
3.300000e-002,4.386653e-006
3.400000e-002,-2.985460e-005
3.500000e-002,-4.663952e-005
3.600000e-002,-4.663952e-005
3.700000e-002,-3.656856e-005
3.800000e-002,-6.020000e-006
3.900000e-002,1.701065e-006
4.000000e-002,-9.845241e-007
4.100000e-002,-1.709805e-005
4.200000e-002,-1.655920e-006
4.300000e-002,1.580040e-005
4.400000e-002,2.553566e-005
4.500000e-002,1.042922e-005
4.600000e-002,3.379555e-006
4.700000e-002,-3.131279e-007
4.800000e-002,-1.139118e-005
4.900000e-002,-1.038408e-005
5.000000e-002,-3.334415e-006
5.100000e-002,2.372461e-006
5.200000e-002,1.029668e-006
5.300000e-002,2.708159e-006
5.400000e-002,3.715257e-006
5.500000e-002,7.743638e-006
5.600000e-002,9.757827e-006
5.700000e-002,7.072242e-006
5.800000e-002,8.415034e-006
5.900000e-002,7.072242e-006
6.000000e-002,8.415034e-006
6.100000e-002,8.750733e-006
6.200000e-002,6.065144e-006
6.300000e-002,-6.488260e-007
6.400000e-002,4.386653e-006
6.500000e-002,-6.488260e-007
6.600000e-002,-5.684302e-006
6.700000e-002,-2.663015e-006
6.800000e-002,2.036763e-006
6.900000e-002,5.393748e-006
7.000000e-002,2.372461e-006
7.100000e-002,-1.655920e-006
7.200000e-002,3.043857e-006
7.300000e-002,-2.998713e-006
7.400000e-002,-3.334415e-006
7.500000e-002,-4.341509e-006
7.600000e-002,-5.684302e-006
7.700000e-002,-5.012905e-006
7.800000e-002,-3.670113e-006
7.900000e-002,1.701065e-006
8.000000e-002,5.058050e-006
8.100000e-002,-2.998713e-006
8.200000e-002,-1.776945e-005
8.300000e-002,-1.306967e-005
8.400000e-002,2.372461e-006
8.500000e-002,1.949308e-005
8.600000e-002,2.889264e-005
8.700000e-002,2.184297e-005
8.800000e-002,2.184297e-005
8.900000e-002,1.311481e-005
9.000000e-002,-2.998713e-006
9.100000e-002,-1.776945e-005
9.200000e-002,-3.119739e-005
9.300000e-002,-3.254018e-005
9.400000e-002,-1.407676e-005
9.500000e-002,-1.374106e-005
9.600000e-002,-6.073885e-005
9.700000e-002,-4.731091e-005
9.800000e-002,8.415034e-006
9.900000e-002,4.869885e-005
1.000000e-001,5.608422e-005
1.010000e-001,4.869885e-005
1.020000e-001,4.064209e-005
1.030000e-001,3.325672e-005
1.040000e-001,1.110062e-005
1.050000e-001,-1.508386e-005
1.060000e-001,-4.261113e-005
1.070000e-001,-2.347632e-005
1.080000e-001,6.939702e-007
1.090000e-001,4.722351e-006
1.100000e-001,-1.239827e-005
1.110000e-001,-1.407676e-005
1.120000e-001,-2.327317e-006
1.130000e-001,-4.677207e-006
1.140000e-001,-6.020000e-006
1.150000e-001,2.150728e-005
1.160000e-001,2.050018e-005
1.170000e-001,1.848599e-005
1.180000e-001,1.982878e-005
1.190000e-001,1.311481e-005
1.200000e-001,1.445761e-005
1.210000e-001,1.512900e-005
1.220000e-001,2.184297e-005
1.230000e-001,1.680750e-005
1.240000e-001,2.217867e-005
1.250000e-001,-2.146213e-005
1.260000e-001,-5.167500e-005
1.270000e-001,-6.745282e-005
1.280000e-001,-4.999650e-005
1.290000e-001,-3.388297e-005
1.300000e-001,1.365366e-006
1.310000e-001,3.224963e-005
1.320000e-001,2.519996e-005
1.330000e-001,1.042922e-005
1.340000e-001,3.715257e-006
1.350000e-001,7.743638e-006
1.360000e-001,-7.698490e-006
1.370000e-001,-1.474816e-005
1.380000e-001,-7.698490e-006
1.390000e-001,-1.991619e-006
1.400000e-001,4.386653e-006
1.410000e-001,-3.131279e-007
1.420000e-001,-1.991619e-006
1.430000e-001,-1.320222e-006
1.440000e-001,-3.670113e-006
1.450000e-001,-7.027094e-006
1.460000e-001,-7.027094e-006
1.470000e-001,-1.038408e-005
1.480000e-001,-7.027094e-006
1.490000e-001,-3.334415e-006
1.500000e-001,-1.655920e-006
1.510000e-001,-1.655920e-006
1.520000e-001,-2.179783e-005
1.530000e-001,-2.314063e-005
1.540000e-001,3.582720e-007
1.550000e-001,2.385716e-005
1.560000e-001,3.325672e-005
1.570000e-001,3.560661e-005
1.580000e-001,3.157823e-005
1.590000e-001,1.647180e-005
1.600000e-001,-7.362792e-006
1.610000e-001,-7.027094e-006
1.620000e-001,7.743638e-006
1.630000e-001,7.743638e-006
1.640000e-001,1.365366e-006
1.650000e-001,3.582720e-007
1.660000e-001,5.058050e-006
1.670000e-001,1.029668e-006
1.680000e-001,5.058050e-006
1.690000e-001,2.372461e-006
1.700000e-001,3.379555e-006
1.710000e-001,-5.012905e-006
1.720000e-001,-1.273397e-005
1.730000e-001,-1.105548e-005
1.740000e-001,-9.041290e-006
1.750000e-001,-1.374106e-005
1.760000e-001,-1.105548e-005
1.770000e-001,-9.712687e-006
1.780000e-001,-1.306967e-005
1.790000e-001,-1.541955e-005
1.800000e-001,-9.376988e-006
1.810000e-001,1.029668e-006
1.820000e-001,9.757827e-006
1.830000e-001,1.512900e-005
1.840000e-001,-2.716900e-005
1.850000e-001,-2.112643e-005
1.860000e-001,1.714319e-005
1.870000e-001,5.541282e-005
1.880000e-001,4.937025e-005
1.890000e-001,2.217867e-005
1.900000e-001,2.217867e-005
1.910000e-001,-9.845241e-007
1.920000e-001,-2.582621e-005
1.930000e-001,-1.844085e-005
1.940000e-001,-1.575526e-005
1.950000e-001,-6.355698e-006
1.960000e-001,-3.131279e-007
1.970000e-001,-2.582621e-005
1.980000e-001,-2.347632e-005
1.990000e-001,1.110062e-005
2.000000e-001,6.400842e-006
2.010000e-001,7.072242e-006
2.020000e-001,1.378621e-005
2.030000e-001,2.184297e-005
2.040000e-001,3.426382e-005
2.050000e-001,3.527091e-005
2.060000e-001,1.110062e-005
2.070000e-001,6.400842e-006
2.080000e-001,-2.998713e-006
2.090000e-001,-9.041290e-006
2.100000e-001,-1.273397e-005
2.110000e-001,-1.575526e-005
2.120000e-001,-1.776945e-005
2.130000e-001,-1.139118e-005
2.140000e-001,-4.341509e-006
2.150000e-001,1.029668e-006
2.160000e-001,1.029668e-006
2.170000e-001,3.582720e-007
2.180000e-001,-7.698490e-006
2.190000e-001,-2.314063e-005
2.200000e-001,-2.649761e-005
2.210000e-001,-2.448342e-005
2.220000e-001,-1.642666e-005
2.230000e-001,-2.716900e-005
2.240000e-001,-2.616191e-005
2.250000e-001,-1.407676e-005
2.260000e-001,6.400842e-006
2.270000e-001,3.582720e-007
2.280000e-001,3.157823e-005
2.290000e-001,7.354054e-005
2.300000e-001,5.608422e-005
2.310000e-001,3.023543e-005
2.320000e-001,1.714319e-005
2.330000e-001,3.392812e-005
2.340000e-001,5.729446e-006
2.350000e-001,1.029668e-006
2.360000e-001,5.058050e-006
2.370000e-001,-3.131279e-007
2.380000e-001,2.372461e-006
2.390000e-001,1.781459e-005
2.400000e-001,-6.355698e-006
2.410000e-001,-3.723996e-005
2.420000e-001,-4.193974e-005
2.430000e-001,-3.723996e-005
2.440000e-001,-2.884749e-005
2.450000e-001,-1.642666e-005
2.460000e-001,-2.179783e-005
2.470000e-001,-1.139118e-005
2.480000e-001,2.257025e-008
2.490000e-001,4.722351e-006
2.500000e-001,-6.488260e-007
2.510000e-001,7.072242e-006
2.520000e-001,2.184297e-005
2.530000e-001,9.086431e-006
2.540000e-001,4.386653e-006
2.550000e-001,-5.684302e-006
2.560000e-001,-1.239827e-005
2.570000e-001,-7.362792e-006
2.580000e-001,-3.131279e-007
2.590000e-001,-3.334415e-006
2.600000e-001,-4.341509e-006
2.610000e-001,1.029668e-006
2.620000e-001,5.058050e-006
2.630000e-001,4.386653e-006
2.640000e-001,2.372461e-006
2.650000e-001,6.400842e-006
2.660000e-001,1.277911e-005
2.670000e-001,1.009353e-005
2.680000e-001,3.582720e-007
2.690000e-001,-3.334415e-006
2.700000e-001,-7.698490e-006
2.710000e-001,-5.684302e-006
2.720000e-001,-9.845241e-007
2.730000e-001,9.086431e-006
2.740000e-001,1.378621e-005
2.750000e-001,1.512900e-005
2.760000e-001,1.177202e-005
2.770000e-001,5.729446e-006
2.780000e-001,6.400842e-006
2.790000e-001,3.582720e-007
2.800000e-001,-2.998713e-006
2.810000e-001,6.939702e-007
2.820000e-001,3.715257e-006
2.830000e-001,-1.991619e-006
2.840000e-001,-1.374106e-005
2.850000e-001,-1.172688e-005
2.860000e-001,-9.376988e-006
2.870000e-001,-8.705592e-006
2.880000e-001,-2.998713e-006
2.890000e-001,9.086431e-006
2.900000e-001,1.445761e-005
2.910000e-001,1.110062e-005
2.920000e-001,6.400842e-006
2.930000e-001,-5.012905e-006
2.940000e-001,-5.012905e-006
2.950000e-001,-1.407676e-005
2.960000e-001,-1.575526e-005
2.970000e-001,-3.334415e-006
2.980000e-001,2.372461e-006
2.990000e-001,3.582720e-007
3.000000e-001,-1.709805e-005
3.010000e-001,-6.141025e-005
3.020000e-001,-5.637477e-005
3.030000e-001,2.318577e-005
3.040000e-001,7.286914e-005
3.050000e-001,6.951216e-005
3.060000e-001,4.467047e-005
3.070000e-001,3.929929e-005
3.080000e-001,1.512900e-005
3.090000e-001,-1.810515e-005
3.100000e-001,-1.844085e-005
3.110000e-001,-1.273397e-005
3.120000e-001,-1.071978e-005
3.130000e-001,-3.153309e-005
3.140000e-001,-3.455437e-005
3.150000e-001,-1.374106e-005
3.160000e-001,5.393748e-006
3.170000e-001,1.647180e-005
3.180000e-001,2.654275e-005
3.190000e-001,2.184297e-005
3.200000e-001,-5.684302e-006
3.210000e-001,-1.105548e-005
3.220000e-001,1.311481e-005
3.230000e-001,3.043857e-006
3.240000e-001,-5.684302e-006
3.250000e-001,-3.131279e-007
3.260000e-001,5.058050e-006
3.270000e-001,6.939702e-007
3.280000e-001,-6.355698e-006
3.290000e-001,-1.844085e-005
3.300000e-001,-1.575526e-005
3.310000e-001,2.372461e-006
3.320000e-001,5.729446e-006
3.330000e-001,-3.131279e-007
3.340000e-001,6.939702e-007
3.350000e-001,-4.341509e-006
3.360000e-001,-5.012905e-006
3.370000e-001,3.043857e-006
3.380000e-001,-1.172688e-005
3.390000e-001,-1.575526e-005
3.400000e-001,-8.369887e-006
3.410000e-001,-3.131279e-007
3.420000e-001,-1.655920e-006
3.430000e-001,6.400842e-006
3.440000e-001,9.086431e-006
3.450000e-001,1.580040e-005
3.460000e-001,1.365366e-006
3.470000e-001,4.386653e-006
3.480000e-001,5.729446e-006
3.490000e-001,2.372461e-006
3.500000e-001,3.582720e-007
3.510000e-001,-4.341509e-006
3.520000e-001,-5.684302e-006
3.530000e-001,-2.998713e-006
3.540000e-001,-2.998713e-006
3.550000e-001,1.042922e-005
3.560000e-001,1.029668e-006
3.570000e-001,-9.845241e-007
3.580000e-001,-3.131279e-007
3.590000e-001,-1.991619e-006
3.600000e-001,-5.684302e-006
3.610000e-001,-1.239827e-005
3.620000e-001,-9.712687e-006
3.630000e-001,1.546470e-005
3.640000e-001,7.072242e-006
3.650000e-001,-5.684302e-006
3.660000e-001,-5.348604e-006
3.670000e-001,1.580040e-005
3.680000e-001,1.848599e-005
3.690000e-001,-5.012905e-006
3.700000e-001,3.715257e-006
3.710000e-001,1.412191e-005
3.720000e-001,6.400842e-006
3.730000e-001,-1.655920e-006
3.740000e-001,1.029668e-006
3.750000e-001,7.407940e-006
3.760000e-001,-1.655920e-006
3.770000e-001,-1.105548e-005
3.780000e-001,-2.314063e-005
3.790000e-001,-2.683331e-005
3.800000e-001,-8.369887e-006
3.810000e-001,4.386653e-006
3.820000e-001,1.177202e-005
3.830000e-001,1.714319e-005
3.840000e-001,1.714319e-005
3.850000e-001,1.445761e-005
3.860000e-001,2.036763e-006
3.870000e-001,-2.179783e-005
3.880000e-001,-3.254018e-005
3.890000e-001,-1.776945e-005
3.900000e-001,2.372461e-006
3.910000e-001,1.580040e-005
3.920000e-001,2.050018e-005
3.930000e-001,2.486426e-005
3.940000e-001,1.177202e-005
3.950000e-001,-1.655920e-006
3.960000e-001,-2.327317e-006
3.970000e-001,-4.341509e-006
3.980000e-001,-1.172688e-005
3.990000e-001,-1.239827e-005
4.000000e-001,-3.131279e-007
4.010000e-001,3.043857e-006
4.020000e-001,3.043857e-006
4.030000e-001,-6.488260e-007
4.040000e-001,1.029668e-006
4.050000e-001,-3.131279e-007
4.060000e-001,1.701065e-006
4.070000e-001,-3.670113e-006
4.080000e-001,-2.998713e-006
4.090000e-001,-5.012905e-006
4.100000e-001,-5.348604e-006
4.110000e-001,-5.684302e-006
4.120000e-001,-1.306967e-005
4.130000e-001,-2.280493e-005
4.140000e-001,-1.474816e-005
4.150000e-001,-4.341509e-006
4.160000e-001,3.715257e-006
4.170000e-001,2.318577e-005
4.180000e-001,1.378621e-005
4.190000e-001,-3.455437e-005
4.200000e-001,-6.275304e-005
4.210000e-001,-1.743375e-005
4.220000e-001,6.400842e-006
4.230000e-001,3.325672e-005
4.240000e-001,4.299198e-005
4.250000e-001,3.997069e-005
4.260000e-001,3.997069e-005
4.270000e-001,9.757827e-006
4.280000e-001,2.989974e-005
4.290000e-001,6.212679e-005
4.300000e-001,2.452856e-005
4.310000e-001,-1.004838e-005
4.320000e-001,-2.716900e-005
4.330000e-001,-3.757566e-005
4.340000e-001,-4.865371e-005
4.350000e-001,-4.261113e-005
4.360000e-001,-3.925415e-005
4.370000e-001,-3.489007e-005
4.380000e-001,-1.642666e-005
4.390000e-001,9.422129e-006
4.400000e-001,1.714319e-005
4.410000e-001,2.687845e-005
4.420000e-001,2.251437e-005
4.430000e-001,1.580040e-005
4.440000e-001,5.058050e-006
4.450000e-001,-3.131279e-007
4.460000e-001,-1.320222e-006
4.470000e-001,-9.712687e-006
4.480000e-001,-8.705592e-006
4.490000e-001,-1.004838e-005
4.500000e-001,1.029668e-006
4.510000e-001,-3.131279e-007
4.520000e-001,-3.321158e-005
4.530000e-001,-3.388297e-005
4.540000e-001,-2.515482e-005
4.550000e-001,2.251437e-005
4.560000e-001,6.179109e-005
4.570000e-001,6.246249e-005
4.580000e-001,7.354054e-005
4.590000e-001,5.809841e-005
4.600000e-001,2.385716e-005
4.610000e-001,4.722351e-006
4.620000e-001,-7.027094e-006
4.630000e-001,-1.844085e-005
4.640000e-001,-2.851180e-005
4.650000e-001,-3.522577e-005
4.660000e-001,-2.515482e-005
4.670000e-001,-2.079073e-005
4.680000e-001,-6.355698e-006
4.690000e-001,1.580040e-005
4.700000e-001,2.251437e-005
4.710000e-001,3.715257e-006
4.720000e-001,-2.998713e-006
4.730000e-001,-5.684302e-006
4.740000e-001,-1.575526e-005
4.750000e-001,-1.508386e-005
4.760000e-001,-1.541955e-005
4.770000e-001,-2.347632e-005
4.780000e-001,-3.455437e-005
4.790000e-001,-2.784040e-005
4.800000e-001,-6.020000e-006
4.810000e-001,1.177202e-005
4.820000e-001,2.083588e-005
4.830000e-001,1.781459e-005
4.840000e-001,1.029668e-006
4.850000e-001,-7.027094e-006
4.860000e-001,-1.320222e-006
4.870000e-001,2.620705e-005
4.880000e-001,1.042922e-005
4.890000e-001,1.076493e-005
4.900000e-001,3.582720e-007
4.910000e-001,-3.556146e-005
4.920000e-001,-8.369887e-006
4.930000e-001,5.172014e-005
4.940000e-001,8.159730e-005
4.950000e-001,6.514808e-005
4.960000e-001,5.172014e-005
4.970000e-001,1.982878e-005
4.980000e-001,-1.172688e-005
4.990000e-001,-2.582621e-005
5.000000e-001,-1.105548e-005
5.010000e-001,-2.347632e-005
5.020000e-001,-3.254018e-005
5.030000e-001,-2.347632e-005
5.040000e-001,-9.041290e-006
5.050000e-001,-9.712687e-006
5.060000e-001,-1.642666e-005
5.070000e-001,6.939702e-007
5.080000e-001,2.318577e-005
5.090000e-001,-2.998713e-006
5.100000e-001,-2.951889e-005
5.110000e-001,-3.723996e-005
5.120000e-001,-1.374106e-005
5.130000e-001,2.083588e-005
5.140000e-001,1.982878e-005
5.150000e-001,2.372461e-006
5.160000e-001,-2.045503e-005
5.170000e-001,-3.052599e-005
5.180000e-001,-3.690426e-005
5.190000e-001,-2.784040e-005
5.200000e-001,-1.743375e-005
5.210000e-001,-1.239827e-005
5.220000e-001,-1.306967e-005
5.230000e-001,-1.676235e-005
5.240000e-001,-3.455437e-005
5.250000e-001,-3.925415e-005
5.260000e-001,-1.206257e-005
5.270000e-001,7.407940e-006
5.280000e-001,3.023543e-005
5.290000e-001,5.272723e-005
5.300000e-001,5.071304e-005
5.310000e-001,3.896360e-005
5.320000e-001,1.781459e-005
5.330000e-001,-6.488260e-007
5.340000e-001,-4.341509e-006
5.350000e-001,-2.998713e-006
5.360000e-001,-9.845241e-007
5.370000e-001,3.582720e-007
5.380000e-001,-1.508386e-005
5.390000e-001,-1.844085e-005
5.400000e-001,-1.474816e-005
5.410000e-001,1.029668e-006
5.420000e-001,8.415034e-006
5.430000e-001,1.915739e-005
5.440000e-001,8.079336e-006
5.450000e-001,-6.020000e-006
5.460000e-001,-1.508386e-005
5.470000e-001,-4.677207e-006
5.480000e-001,-1.911224e-005
5.490000e-001,-1.374106e-005
5.500000e-001,-5.012905e-006
5.510000e-001,-7.698490e-006
5.520000e-001,3.043857e-006
5.530000e-001,1.412191e-005
5.540000e-001,1.311481e-005
5.550000e-001,5.058050e-006
5.560000e-001,-8.369887e-006
5.570000e-001,2.117158e-005
5.580000e-001,5.071304e-005
5.590000e-001,3.661371e-005
5.600000e-001,2.251437e-005
5.610000e-001,6.400842e-006
5.620000e-001,-2.716900e-005
5.630000e-001,-4.395393e-005
5.640000e-001,-4.328253e-005
5.650000e-001,-2.515482e-005
5.660000e-001,-2.784040e-005
5.670000e-001,-5.033220e-005
5.680000e-001,2.452856e-005
5.690000e-001,6.481238e-005
5.700000e-001,7.622613e-005
5.710000e-001,3.493521e-005
5.720000e-001,1.848599e-005
5.730000e-001,7.743638e-006
5.740000e-001,-7.362792e-006
5.750000e-001,-2.998713e-006
5.760000e-001,-5.012905e-006
5.770000e-001,-6.355698e-006
5.780000e-001,1.042922e-005
5.790000e-001,8.750733e-006
5.800000e-001,3.715257e-006
5.810000e-001,-3.670113e-006
5.820000e-001,-7.698490e-006
5.830000e-001,1.244342e-005
5.840000e-001,2.251437e-005
5.850000e-001,-3.670113e-006
5.860000e-001,-2.381202e-005
5.870000e-001,-4.764661e-005
5.880000e-001,-4.093264e-005
5.890000e-001,-1.911224e-005
5.900000e-001,-1.441246e-005
5.910000e-001,-1.004838e-005
5.920000e-001,-8.369887e-006
5.930000e-001,-1.374106e-005
5.940000e-001,-1.239827e-005
5.950000e-001,9.086431e-006
5.960000e-001,2.050018e-005
5.970000e-001,2.251437e-005
5.980000e-001,2.385716e-005
5.990000e-001,2.251437e-005
6.000000e-001,1.512900e-005
6.010000e-001,5.058050e-006
6.020000e-001,3.715257e-006
6.030000e-001,1.110062e-005
6.040000e-001,5.729446e-006
6.050000e-001,1.029668e-006
6.060000e-001,-1.655920e-006
6.070000e-001,-4.005811e-006
6.080000e-001,-4.341509e-006
6.090000e-001,-6.488260e-007
6.100000e-001,-3.131279e-007
6.110000e-001,-5.684302e-006
6.120000e-001,4.386653e-006
6.130000e-001,9.757827e-006
6.140000e-001,2.036763e-006
6.150000e-001,-5.012905e-006
6.160000e-001,-4.341509e-006
6.170000e-001,-1.655920e-006
6.180000e-001,6.065144e-006
6.190000e-001,3.379555e-006
6.200000e-001,-4.677207e-006
6.210000e-001,-5.684302e-006
6.220000e-001,-8.034189e-006
6.230000e-001,6.939702e-007
6.240000e-001,3.379555e-006
6.250000e-001,-7.362792e-006
6.260000e-001,-7.698490e-006
6.270000e-001,-7.698490e-006
6.280000e-001,-5.684302e-006
6.290000e-001,7.407940e-006
6.300000e-001,1.512900e-005
6.310000e-001,7.407940e-006
6.320000e-001,-3.131279e-007
6.330000e-001,-9.845241e-007
6.340000e-001,-7.027094e-006
6.350000e-001,-1.508386e-005
6.360000e-001,-3.254018e-005
6.370000e-001,3.715257e-006
6.380000e-001,3.392812e-005
6.390000e-001,2.318577e-005
6.400000e-001,-1.306967e-005
6.410000e-001,-2.663015e-006
6.420000e-001,2.922834e-005
6.430000e-001,2.587136e-005
6.440000e-001,1.580040e-005
6.450000e-001,2.372461e-006
6.460000e-001,-5.012905e-006
6.470000e-001,3.715257e-006
6.480000e-001,-6.355698e-006
6.490000e-001,-4.677207e-006
6.500000e-001,-3.052599e-005
6.510000e-001,-5.201069e-005
6.520000e-001,8.415034e-006
6.530000e-001,3.929929e-005
6.540000e-001,2.519996e-005
6.550000e-001,6.400842e-006
6.560000e-001,-4.341509e-006
6.570000e-001,-7.362792e-006
6.580000e-001,-1.407676e-005
6.590000e-001,-2.381202e-005
6.600000e-001,-1.239827e-005
6.610000e-001,-4.005811e-006
6.620000e-001,-9.845241e-007
6.630000e-001,-6.488260e-007
6.640000e-001,-4.341509e-006
6.650000e-001,-5.012905e-006
6.660000e-001,-7.027094e-006
6.670000e-001,-4.341509e-006
6.680000e-001,-4.341509e-006
6.690000e-001,-7.027094e-006
6.700000e-001,-2.663015e-006
6.710000e-001,-7.027094e-006
6.720000e-001,-5.684302e-006
6.730000e-001,-4.341509e-006
6.740000e-001,3.715257e-006
6.750000e-001,1.244342e-005
6.760000e-001,1.714319e-005
6.770000e-001,1.311481e-005
6.780000e-001,1.345051e-005
6.790000e-001,3.661371e-005
6.800000e-001,2.721415e-005
6.810000e-001,2.372461e-006
6.820000e-001,-1.911224e-005
6.830000e-001,-2.649761e-005
6.840000e-001,-3.119739e-005
6.850000e-001,-2.314063e-005
6.860000e-001,-1.239827e-005
6.870000e-001,-7.027094e-006
6.880000e-001,7.743638e-006
6.890000e-001,1.815029e-005
6.900000e-001,1.177202e-005
6.910000e-001,1.647180e-005
6.920000e-001,-3.131279e-007
6.930000e-001,-1.105548e-005
6.940000e-001,-1.239827e-005
6.950000e-001,-1.306967e-005
6.960000e-001,1.277911e-005
6.970000e-001,2.117158e-005
6.980000e-001,9.086431e-006
6.990000e-001,1.546470e-005
7.000000e-001,2.372461e-006
7.010000e-001,-8.705592e-006
7.020000e-001,-9.041290e-006
7.030000e-001,-8.369887e-006
7.040000e-001,-6.355698e-006
7.050000e-001,7.407940e-006
7.060000e-001,6.400842e-006
7.070000e-001,1.177202e-005
7.080000e-001,9.757827e-006
7.090000e-001,1.042922e-005
7.100000e-001,2.257025e-008
7.110000e-001,1.949308e-005
7.120000e-001,3.527091e-005
7.130000e-001,1.110062e-005
7.140000e-001,-1.709805e-005
7.150000e-001,-2.549051e-005
7.160000e-001,5.058050e-006
7.170000e-001,6.400842e-006
7.180000e-001,-1.776945e-005
7.190000e-001,-3.254018e-005
7.200000e-001,-2.179783e-005
7.210000e-001,-3.992555e-005
7.220000e-001,-3.992555e-005
7.230000e-001,2.150728e-005
7.240000e-001,5.071304e-005
7.250000e-001,4.937025e-005
7.260000e-001,4.131349e-005
7.270000e-001,2.687845e-005
7.280000e-001,-1.991619e-006
7.290000e-001,-3.690426e-005
7.300000e-001,-2.112643e-005
7.310000e-001,4.386653e-006
7.320000e-001,-4.341509e-006
7.330000e-001,-1.978364e-005
7.340000e-001,-7.362792e-006
7.350000e-001,-1.441246e-005
7.360000e-001,-9.712687e-006
7.370000e-001,1.848599e-005
7.380000e-001,7.072242e-006
7.390000e-001,-8.369887e-006
7.400000e-001,-1.239827e-005
7.410000e-001,-1.239827e-005
7.420000e-001,1.701065e-006
7.430000e-001,3.124253e-005
7.440000e-001,1.647180e-005
7.450000e-001,-5.684302e-006
7.460000e-001,-3.421867e-005
7.470000e-001,-3.455437e-005
7.480000e-001,-2.179783e-005
7.490000e-001,-1.374106e-005
7.500000e-001,-1.575526e-005
7.510000e-001,-2.851180e-005
7.520000e-001,-2.448342e-005
7.530000e-001,1.076493e-005
7.540000e-001,5.474142e-005
7.550000e-001,7.622613e-005
7.560000e-001,5.004165e-005
7.570000e-001,3.325672e-005
7.580000e-001,2.318577e-005
7.590000e-001,1.580040e-005
7.600000e-001,2.036763e-006
7.610000e-001,-1.206257e-005
7.620000e-001,-2.951889e-005
7.630000e-001,-4.898940e-005
7.640000e-001,-4.059694e-005
7.650000e-001,-7.027094e-006
7.660000e-001,1.815029e-005
7.670000e-001,3.594231e-005
7.680000e-001,2.989974e-005
7.690000e-001,2.285007e-005
7.700000e-001,3.527091e-005
7.710000e-001,1.311481e-005
7.720000e-001,-2.246922e-005
7.730000e-001,-3.019029e-005
7.740000e-001,-3.186879e-005
7.750000e-001,-2.246922e-005
7.760000e-001,-1.105548e-005
7.770000e-001,-4.341509e-006
7.780000e-001,-5.012905e-006
7.790000e-001,-6.020000e-006
7.800000e-001,-7.027094e-006
7.810000e-001,-1.609096e-005
7.820000e-001,-1.374106e-005
7.830000e-001,-1.676235e-005
7.840000e-001,-2.045503e-005
7.850000e-001,-2.327317e-006
7.860000e-001,1.177202e-005
7.870000e-001,1.445761e-005
7.880000e-001,-3.131279e-007
7.890000e-001,-7.362792e-006
7.900000e-001,2.889264e-005
7.910000e-001,2.519996e-005
7.920000e-001,1.714319e-005
7.930000e-001,1.647180e-005
7.940000e-001,1.345051e-005
7.950000e-001,9.086431e-006
7.960000e-001,-6.355698e-006
7.970000e-001,-1.239827e-005
7.980000e-001,-1.239827e-005
7.990000e-001,-1.374106e-005
8.000000e-001,-1.239827e-005
8.010000e-001,-3.388297e-005
8.020000e-001,-5.033220e-005
8.030000e-001,4.386653e-006
8.040000e-001,4.735606e-005
8.050000e-001,6.279819e-005
8.060000e-001,4.802746e-005
8.070000e-001,2.687845e-005
8.080000e-001,5.393748e-006
8.090000e-001,-1.676235e-005
8.100000e-001,-1.877654e-005
8.110000e-001,-1.508386e-005
8.120000e-001,-1.655920e-006
8.130000e-001,3.043857e-006
8.140000e-001,-2.327317e-006
8.150000e-001,-1.038408e-005
8.160000e-001,-1.441246e-005
8.170000e-001,-1.911224e-005
8.180000e-001,-7.027094e-006
8.190000e-001,1.915739e-005
8.200000e-001,9.757827e-006
8.210000e-001,-1.609096e-005
8.220000e-001,-2.146213e-005
8.230000e-001,-3.791136e-005
8.240000e-001,-4.059694e-005
8.250000e-001,-2.481912e-005
8.260000e-001,4.386653e-006
8.270000e-001,2.788555e-005
8.280000e-001,6.078400e-005
8.290000e-001,8.126160e-005
8.300000e-001,6.917646e-005
8.310000e-001,2.721415e-005
8.320000e-001,-1.407676e-005
8.330000e-001,-3.119739e-005
8.340000e-001,-4.093264e-005
8.350000e-001,-3.119739e-005
8.360000e-001,-1.991619e-006
8.370000e-001,6.065144e-006
8.380000e-001,-4.341509e-006
8.390000e-001,-5.684302e-006
8.400000e-001,-1.374106e-005
8.410000e-001,-2.784040e-005
8.420000e-001,-5.335349e-005
8.430000e-001,-5.133930e-005
8.440000e-001,-1.541955e-005
8.450000e-001,3.997069e-005
8.460000e-001,5.809841e-005
8.470000e-001,3.795650e-005
8.480000e-001,3.829220e-005
8.490000e-001,1.714319e-005
8.500000e-001,-1.655920e-006
8.510000e-001,-9.845241e-007
8.520000e-001,1.613610e-005
8.530000e-001,-3.670113e-006
8.540000e-001,-1.172688e-005
8.550000e-001,-1.239827e-005
8.560000e-001,-1.239827e-005
8.570000e-001,6.065144e-006
8.580000e-001,1.277911e-005
8.590000e-001,9.757827e-006
8.600000e-001,1.143632e-005
8.610000e-001,-1.655920e-006
8.620000e-001,-2.179783e-005
8.630000e-001,-1.575526e-005
8.640000e-001,-1.944794e-005
8.650000e-001,-1.105548e-005
8.660000e-001,3.715257e-006
8.670000e-001,-4.999650e-005
8.680000e-001,-5.872466e-005
8.690000e-001,-9.712687e-006
8.700000e-001,2.385716e-005
8.710000e-001,4.064209e-005
8.720000e-001,3.191393e-005
8.730000e-001,3.862790e-005
8.740000e-001,7.072242e-006
8.750000e-001,-2.347632e-005
8.760000e-001,-3.421867e-005
8.770000e-001,-1.676235e-005
8.780000e-001,-3.670113e-006
8.790000e-001,8.750733e-006
8.800000e-001,2.889264e-005
8.810000e-001,1.029668e-006
8.820000e-001,-6.020000e-006
8.830000e-001,1.882169e-005
8.840000e-001,3.057113e-005
8.850000e-001,9.086431e-006
8.860000e-001,-1.306967e-005
8.870000e-001,-2.146213e-005
8.880000e-001,-9.712687e-006
8.890000e-001,-2.481912e-005
8.900000e-001,-2.347632e-005
8.910000e-001,-7.698490e-006
8.920000e-001,-2.998713e-006
8.930000e-001,-6.488260e-007
8.940000e-001,1.143632e-005
8.950000e-001,2.452856e-005
8.960000e-001,2.519996e-005
8.970000e-001,1.311481e-005
8.980000e-001,-9.041290e-006
8.990000e-001,-7.698490e-006
9.000000e-001,-9.712687e-006
9.010000e-001,-1.655920e-006
9.020000e-001,9.086431e-006
9.030000e-001,9.086431e-006
9.040000e-001,7.072242e-006
9.050000e-001,4.386653e-006
9.060000e-001,2.708159e-006
9.070000e-001,5.058050e-006
9.080000e-001,2.708159e-006
9.090000e-001,-1.655920e-006
9.100000e-001,6.400842e-006
9.110000e-001,1.042922e-005
9.120000e-001,1.378621e-005
9.130000e-001,9.757827e-006
9.140000e-001,-3.334415e-006
9.150000e-001,-1.944794e-005
9.160000e-001,-3.153309e-005
9.170000e-001,-4.059694e-005
9.180000e-001,-2.851180e-005
9.190000e-001,4.386653e-006
9.200000e-001,3.392812e-005
9.210000e-001,2.486426e-005
9.220000e-001,8.750733e-006
9.230000e-001,1.110062e-005
9.240000e-001,2.708159e-006
9.250000e-001,1.701065e-006
9.260000e-001,4.722351e-006
9.270000e-001,5.393748e-006
9.280000e-001,-3.131279e-007
9.290000e-001,2.708159e-006
9.300000e-001,-9.041290e-006
9.310000e-001,-7.362792e-006
9.320000e-001,-9.845241e-007
9.330000e-001,-6.020000e-006
9.340000e-001,1.029668e-006
9.350000e-001,2.385716e-005
9.360000e-001,2.318577e-005
9.370000e-001,3.715257e-006
9.380000e-001,3.715257e-006
9.390000e-001,-5.684302e-006
9.400000e-001,-1.105548e-005
9.410000e-001,-1.508386e-005
9.420000e-001,-1.139118e-005
9.430000e-001,-1.709805e-005
9.440000e-001,-2.381202e-005
9.450000e-001,-1.676235e-005
9.460000e-001,-2.045503e-005
9.470000e-001,-3.958985e-005
9.480000e-001,-5.066790e-005
9.490000e-001,4.050955e-006
9.500000e-001,6.212679e-005
9.510000e-001,8.294010e-005
9.520000e-001,7.756892e-005
9.530000e-001,7.555473e-005
9.540000e-001,3.862790e-005
9.550000e-001,-1.508386e-005
9.560000e-001,-3.522577e-005
9.570000e-001,-3.019029e-005
9.580000e-001,-3.388297e-005
9.590000e-001,-3.421867e-005
9.600000e-001,-1.105548e-005
9.610000e-001,4.534187e-005
9.620000e-001,3.560661e-005
9.630000e-001,-9.845241e-007
9.640000e-001,-2.649761e-005
9.650000e-001,-3.723996e-005
9.660000e-001,-4.462533e-005
9.670000e-001,-4.193974e-005
9.680000e-001,-3.052599e-005
9.690000e-001,-2.851180e-005
9.700000e-001,-2.515482e-005
9.710000e-001,-1.676235e-005
9.720000e-001,-9.712687e-006
9.730000e-001,1.445761e-005
9.740000e-001,2.721415e-005
9.750000e-001,1.512900e-005
9.760000e-001,1.915739e-005
9.770000e-001,2.519996e-005
9.780000e-001,2.654275e-005
9.790000e-001,4.722351e-006
9.800000e-001,-9.712687e-006
9.810000e-001,-8.369887e-006
9.820000e-001,-7.027094e-006
9.830000e-001,2.117158e-005
9.840000e-001,3.661371e-005
9.850000e-001,3.997069e-005
9.860000e-001,1.848599e-005
9.870000e-001,9.086431e-006
9.880000e-001,-5.012905e-006
9.890000e-001,-1.340537e-005
9.900000e-001,-1.172688e-005
9.910000e-001,-5.684302e-006
9.920000e-001,3.715257e-006
9.930000e-001,1.445761e-005
9.940000e-001,5.729446e-006
9.950000e-001,-7.027094e-006
9.960000e-001,-1.105548e-005
9.970000e-001,-9.712687e-006
9.980000e-001,-8.369887e-006
9.990000e-001,-1.172688e-005
1.000000e+000,-1.172688e-005
1.001000e+000,-1.508386e-005
1.002000e+000,-9.712687e-006
1.003000e+000,-1.139118e-005
1.004000e+000,6.939702e-007
1.005000e+000,3.043857e-006
1.006000e+000,-4.341509e-006
1.007000e+000,-4.677207e-006
1.008000e+000,-1.374106e-005
1.009000e+000,3.715257e-006
1.010000e+000,1.110062e-005
1.011000e+000,9.086431e-006
1.012000e+000,3.043857e-006
1.013000e+000,-1.655920e-006
1.014000e+000,6.065144e-006
1.015000e+000,-4.677207e-006
1.016000e+000,2.083588e-005
1.017000e+000,8.415034e-006
1.018000e+000,-1.105548e-005
1.019000e+000,-3.131279e-007
1.020000e+000,2.117158e-005
1.021000e+000,2.385716e-005
1.022000e+000,-3.131279e-007
1.023000e+000,-5.603907e-005
1.024000e+000,-4.999650e-005
1.025000e+000,1.546470e-005
1.026000e+000,3.997069e-005
1.027000e+000,4.265628e-005
1.028000e+000,2.855694e-005
1.029000e+000,1.982878e-005
1.030000e+000,-4.341509e-006
1.031000e+000,-1.911224e-005
1.032000e+000,-2.481912e-005
1.033000e+000,-1.709805e-005
1.034000e+000,3.997069e-005
1.035000e+000,5.440573e-005
1.036000e+000,-2.663015e-006
1.037000e+000,-4.898940e-005
1.038000e+000,-6.073885e-005
1.039000e+000,-3.052599e-005
1.040000e+000,-2.079073e-005
1.041000e+000,-1.575526e-005
1.042000e+000,-2.784040e-005
1.043000e+000,-2.716900e-005
1.044000e+000,-1.306967e-005
1.045000e+000,1.042922e-005
1.046000e+000,3.224963e-005
1.047000e+000,2.217867e-005
1.048000e+000,1.311481e-005
1.049000e+000,1.378621e-005
1.050000e+000,1.714319e-005
1.051000e+000,2.372461e-006
1.052000e+000,4.386653e-006
1.053000e+000,2.587136e-005
1.054000e+000,1.781459e-005
1.055000e+000,1.378621e-005
1.056000e+000,1.982878e-005
1.057000e+000,1.277911e-005
1.058000e+000,6.736540e-006
1.059000e+000,5.729446e-006
1.060000e+000,-1.004838e-005
1.061000e+000,-1.038408e-005
1.062000e+000,-6.020000e-006
1.063000e+000,-1.911224e-005
1.064000e+000,-1.071978e-005
1.065000e+000,3.043857e-006
1.066000e+000,-3.334415e-006
1.067000e+000,-2.448342e-005
1.068000e+000,-2.381202e-005
1.069000e+000,-1.374106e-005
1.070000e+000,6.939702e-007
1.071000e+000,1.701065e-006
1.072000e+000,5.058050e-006
1.073000e+000,1.647180e-005
1.074000e+000,-6.488260e-007
1.075000e+000,-2.327317e-006
1.076000e+000,6.400842e-006
1.077000e+000,3.715257e-006
1.078000e+000,3.043857e-006
1.079000e+000,-9.845241e-007
1.080000e+000,-2.663015e-006
1.081000e+000,-1.991619e-006
1.082000e+000,-3.131279e-007
1.083000e+000,-1.320222e-006
1.084000e+000,-1.655920e-006
1.085000e+000,2.372461e-006
1.086000e+000,1.042922e-005
1.087000e+000,6.065144e-006
1.088000e+000,1.701065e-006
1.089000e+000,-9.845241e-007
1.090000e+000,-8.369887e-006
1.091000e+000,-1.642666e-005
1.092000e+000,-1.239827e-005
1.093000e+000,-8.369887e-006
1.094000e+000,-7.027094e-006
1.095000e+000,-9.712687e-006
1.096000e+000,-7.027094e-006
1.097000e+000,6.939702e-007
1.098000e+000,-3.131279e-007
1.099000e+000,5.729446e-006
1.100000e+000,1.982878e-005
1.101000e+000,4.634896e-005
1.102000e+000,2.654275e-005
1.103000e+000,5.729446e-006
1.104000e+000,-2.998713e-006
1.105000e+000,-7.698490e-006
1.106000e+000,-7.027094e-006
1.107000e+000,-1.306967e-005
1.108000e+000,-5.805327e-005
1.109000e+000,-3.656856e-005
1.110000e+000,2.452856e-005
1.111000e+000,6.279819e-005
1.112000e+000,4.467047e-005
1.113000e+000,2.385716e-005
1.114000e+000,1.244342e-005
1.115000e+000,-2.179783e-005
1.116000e+000,-2.884749e-005
1.117000e+000,-1.508386e-005
1.118000e+000,-7.027094e-006
1.119000e+000,5.729446e-006
1.120000e+000,9.086431e-006
1.121000e+000,2.519996e-005
1.122000e+000,2.587136e-005
1.123000e+000,6.736540e-006
1.124000e+000,-1.655920e-006
1.125000e+000,-8.369887e-006
1.126000e+000,-1.139118e-005
1.127000e+000,-2.079073e-005
1.128000e+000,-3.052599e-005
1.129000e+000,-2.179783e-005
1.130000e+000,-8.034189e-006
1.131000e+000,-6.691396e-006
1.132000e+000,1.580040e-005
1.133000e+000,3.527091e-005
1.134000e+000,1.143632e-005
1.135000e+000,-2.011934e-005
1.136000e+000,-4.059694e-005
1.137000e+000,-3.522577e-005
1.138000e+000,-6.355698e-006
1.139000e+000,1.445761e-005
1.140000e+000,2.217867e-005
1.141000e+000,1.042922e-005
1.142000e+000,-1.105548e-005
1.143000e+000,-1.105548e-005
1.144000e+000,1.613610e-005
1.145000e+000,4.937025e-005
1.146000e+000,3.459952e-005
1.147000e+000,3.715257e-006
1.148000e+000,-7.027094e-006
1.149000e+000,-1.810515e-005
1.150000e+000,-1.655920e-006
1.151000e+000,8.750733e-006
1.152000e+000,-8.369887e-006
1.153000e+000,-1.441246e-005
1.154000e+000,-1.071978e-005
1.155000e+000,-9.376988e-006
1.156000e+000,-1.071978e-005
1.157000e+000,-9.376988e-006
1.158000e+000,7.072242e-006
1.159000e+000,4.722351e-006
1.160000e+000,2.217867e-005
1.161000e+000,1.412191e-005
1.162000e+000,-2.663015e-006
1.163000e+000,-1.239827e-005
1.164000e+000,-1.306967e-005
1.165000e+000,-5.684302e-006
1.166000e+000,9.757827e-006
1.167000e+000,1.244342e-005
1.168000e+000,3.715257e-006
1.169000e+000,1.701065e-006
1.170000e+000,-1.991619e-006
1.171000e+000,-9.712687e-006
1.172000e+000,-1.172688e-005
1.173000e+000,-2.327317e-006
1.174000e+000,8.750733e-006
1.175000e+000,-3.131279e-007
1.176000e+000,-8.369887e-006
1.177000e+000,-1.139118e-005
1.178000e+000,-1.306967e-005
1.179000e+000,-4.677207e-006
1.180000e+000,7.407940e-006
1.181000e+000,8.415034e-006
1.182000e+000,-1.655920e-006
1.183000e+000,-5.012905e-006
1.184000e+000,7.072242e-006
1.185000e+000,6.400842e-006
1.186000e+000,3.043857e-006
1.187000e+000,1.701065e-006
1.188000e+000,7.743638e-006
1.189000e+000,1.042922e-005
1.190000e+000,-1.004838e-005
1.191000e+000,-7.315969e-005
1.192000e+000,-6.241734e-005
1.193000e+000,-5.012905e-006
1.194000e+000,4.399907e-005
1.195000e+000,5.675562e-005
1.196000e+000,4.735606e-005
1.197000e+000,4.064209e-005
1.198000e+000,1.848599e-005
1.199000e+000,1.029668e-006
1.200000e+000,6.400842e-006
1.201000e+000,-4.341509e-006
1.202000e+000,-1.105548e-005
1.203000e+000,-1.306967e-005
1.204000e+000,-1.810515e-005
1.205000e+000,-2.414772e-005
1.206000e+000,-1.541955e-005
1.207000e+000,-1.575526e-005
1.208000e+000,-7.698490e-006
1.209000e+000,7.072242e-006
1.210000e+000,1.647180e-005
1.211000e+000,4.386653e-006
1.212000e+000,-3.131279e-007
1.213000e+000,6.400842e-006
1.214000e+000,2.708159e-006
1.215000e+000,2.486426e-005
1.216000e+000,1.009353e-005
1.217000e+000,-1.105548e-005
1.218000e+000,-2.213352e-005
1.219000e+000,-3.131279e-007
1.220000e+000,-4.341509e-006
1.221000e+000,-1.991619e-006
1.222000e+000,1.982878e-005
1.223000e+000,2.922834e-005
1.224000e+000,9.757827e-006
1.225000e+000,-2.663015e-006
1.226000e+000,-1.038408e-005
1.227000e+000,-1.172688e-005
1.228000e+000,-3.670113e-006
1.229000e+000,-2.998713e-006
1.230000e+000,3.582720e-007
1.231000e+000,5.058050e-006
1.232000e+000,-8.369887e-006
1.233000e+000,-2.663015e-006
1.234000e+000,-6.020000e-006
1.235000e+000,-8.705592e-006
1.236000e+000,-1.991619e-006
1.237000e+000,1.915739e-005
1.238000e+000,2.822124e-005
1.239000e+000,8.079336e-006
1.240000e+000,-1.239827e-005
1.241000e+000,-2.213352e-005
1.242000e+000,-2.314063e-005
1.243000e+000,-1.172688e-005
1.244000e+000,3.715257e-006
1.245000e+000,5.729446e-006
1.246000e+000,2.788555e-005
1.247000e+000,2.620705e-005
1.248000e+000,5.058050e-006
1.249000e+000,-4.341509e-006
1.250000e+000,-1.978364e-005
1.251000e+000,-3.186879e-005
1.252000e+000,-3.690426e-005
1.253000e+000,-3.522577e-005
1.254000e+000,-5.536768e-005
1.255000e+000,-8.088076e-005
1.256000e+000,-3.388297e-005
1.257000e+000,2.956404e-005
1.258000e+000,7.219775e-005
1.259000e+000,7.622613e-005
1.260000e+000,7.421194e-005
1.261000e+000,7.018355e-005
1.262000e+000,3.728510e-005
1.263000e+000,5.393748e-006
1.264000e+000,-1.810515e-005
1.265000e+000,-2.448342e-005
1.266000e+000,-4.059694e-005
1.267000e+000,-1.743375e-005
1.268000e+000,2.721415e-005
1.269000e+000,4.869885e-005
1.270000e+000,2.050018e-005
1.271000e+000,6.400842e-006
1.272000e+000,1.277911e-005
1.273000e+000,-2.179783e-005
1.274000e+000,-3.522577e-005
1.275000e+000,-1.642666e-005
1.276000e+000,-1.508386e-005
1.277000e+000,-2.784040e-005
1.278000e+000,-1.004838e-005
1.279000e+000,-8.034189e-006
1.280000e+000,-1.508386e-005
1.281000e+000,-3.670113e-006
1.282000e+000,-5.684302e-006
1.283000e+000,-4.341509e-006
1.284000e+000,6.939702e-007
1.285000e+000,3.379555e-006
1.286000e+000,-6.488260e-007
1.287000e+000,-4.677207e-006
1.288000e+000,-1.306967e-005
1.289000e+000,-2.246922e-005
1.290000e+000,-2.045503e-005
1.291000e+000,-8.034189e-006
1.292000e+000,1.177202e-005
1.293000e+000,5.272723e-005
1.294000e+000,6.917646e-005
1.295000e+000,3.157823e-005
1.296000e+000,-9.712687e-006
1.297000e+000,-1.441246e-005
1.298000e+000,-1.374106e-005
1.299000e+000,-1.407676e-005
1.300000e+000,-1.038408e-005
1.301000e+000,-1.776945e-005
1.302000e+000,-5.348604e-006
1.303000e+000,-2.327317e-006
1.304000e+000,-7.362792e-006
1.305000e+000,-1.038408e-005
1.306000e+000,-9.845241e-007
1.307000e+000,8.415034e-006
1.308000e+000,1.210772e-005
1.309000e+000,1.647180e-005
1.310000e+000,1.277911e-005
1.311000e+000,-1.655920e-006
1.312000e+000,-1.374106e-005
1.313000e+000,-1.944794e-005
1.314000e+000,-1.911224e-005
1.315000e+000,-3.670113e-006
1.316000e+000,1.365366e-006
1.317000e+000,6.065144e-006
1.318000e+000,1.848599e-005
1.319000e+000,2.217867e-005
1.320000e+000,1.647180e-005
1.321000e+000,-2.998713e-006
1.322000e+000,-1.071978e-005
1.323000e+000,-1.911224e-005
1.324000e+000,-1.676235e-005
1.325000e+000,7.743638e-006
1.326000e+000,1.378621e-005
1.327000e+000,9.086431e-006
1.328000e+000,5.729446e-006
1.329000e+000,3.582720e-007
1.330000e+000,-1.991619e-006
1.331000e+000,-3.131279e-007
1.332000e+000,8.079336e-006
1.333000e+000,1.177202e-005
1.334000e+000,-1.139118e-005
1.335000e+000,-2.918319e-005
1.336000e+000,-4.462533e-005
1.337000e+000,-1.105548e-005
1.338000e+000,3.292102e-005
1.339000e+000,1.037534e-004
1.340000e+000,9.099686e-005
1.341000e+000,4.265628e-005
1.342000e+000,-1.407676e-005
1.343000e+000,-5.201069e-005
1.344000e+000,-2.985460e-005
1.345000e+000,-3.321158e-005
1.346000e+000,-3.958985e-005
1.347000e+000,-2.985460e-005
1.348000e+000,-4.341509e-006
1.349000e+000,3.715257e-006
1.350000e+000,5.058050e-006
1.351000e+000,7.743638e-006
1.352000e+000,3.043857e-006
1.353000e+000,-1.239827e-005
1.354000e+000,5.729446e-006
1.355000e+000,1.029668e-006
1.356000e+000,-5.684302e-006
1.357000e+000,-6.355698e-006
1.358000e+000,-7.362792e-006
1.359000e+000,-6.355698e-006
1.360000e+000,-5.348604e-006
1.361000e+000,-2.998713e-006
1.362000e+000,1.029668e-006
1.363000e+000,2.452856e-005
1.364000e+000,2.385716e-005
1.365000e+000,1.479331e-005
1.366000e+000,7.743638e-006
1.367000e+000,-1.139118e-005
1.368000e+000,-2.998713e-006
1.369000e+000,3.043857e-006
1.370000e+000,2.372461e-006
1.371000e+000,3.715257e-006
1.372000e+000,6.939702e-007
1.373000e+000,3.292102e-005
1.374000e+000,-9.712687e-006
1.375000e+000,-3.858275e-005
1.376000e+000,-2.716900e-005
1.377000e+000,-2.179783e-005
1.378000e+000,-1.139118e-005
1.379000e+000,-5.684302e-006
1.380000e+000,-1.655920e-006
1.381000e+000,1.915739e-005
1.382000e+000,8.079336e-006
1.383000e+000,1.177202e-005
1.384000e+000,2.117158e-005
1.385000e+000,1.445761e-005
1.386000e+000,-1.320222e-006
1.387000e+000,-4.341509e-006
1.388000e+000,-7.027094e-006
1.389000e+000,1.029668e-006
1.390000e+000,-3.670113e-006
1.391000e+000,-1.105548e-005
1.392000e+000,-1.306967e-005
1.393000e+000,-7.698490e-006
1.394000e+000,-6.488260e-007
1.395000e+000,9.086431e-006
1.396000e+000,8.415034e-006
1.397000e+000,3.379555e-006
1.398000e+000,1.701065e-006
1.399000e+000,-3.131279e-007
1.400000e+000,-2.998713e-006
1.401000e+000,-1.374106e-005
1.402000e+000,-1.374106e-005
1.403000e+000,-7.027094e-006
1.404000e+000,-7.698490e-006
1.405000e+000,-5.684302e-006
1.406000e+000,1.345051e-005
1.407000e+000,7.743638e-006
1.408000e+000,-1.642666e-005
1.409000e+000,2.217867e-005
1.410000e+000,4.634896e-005
1.411000e+000,5.205584e-005
1.412000e+000,3.258533e-005
1.413000e+000,2.452856e-005
1.414000e+000,3.379555e-006
1.415000e+000,-3.052599e-005
1.416000e+000,-3.220448e-005
1.417000e+000,-2.851180e-005
1.418000e+000,-1.273397e-005
1.419000e+000,1.701065e-006
1.420000e+000,3.191393e-005
1.421000e+000,1.714319e-005
1.422000e+000,4.722351e-006
1.423000e+000,-3.119739e-005
1.424000e+000,-3.254018e-005
1.425000e+000,-3.388297e-005
1.426000e+000,-3.690426e-005
1.427000e+000,-3.791136e-005
1.428000e+000,-2.851180e-005
1.429000e+000,-1.575526e-005
1.430000e+000,6.939702e-007
1.431000e+000,7.072242e-006
1.432000e+000,2.922834e-005
1.433000e+000,4.668466e-005
1.434000e+000,3.023543e-005
1.435000e+000,4.386653e-006
1.436000e+000,-1.306967e-005
1.437000e+000,2.257025e-008
1.438000e+000,1.177202e-005
1.439000e+000,1.714319e-005
1.440000e+000,2.385716e-005
1.441000e+000,1.580040e-005
1.442000e+000,2.117158e-005
1.443000e+000,3.715257e-006
1.444000e+000,-2.112643e-005
1.445000e+000,-2.381202e-005
1.446000e+000,-5.684302e-006
1.447000e+000,-6.355698e-006
1.448000e+000,-7.027094e-006
1.449000e+000,-5.348604e-006
1.450000e+000,5.393748e-006
1.451000e+000,7.072242e-006
1.452000e+000,1.647180e-005
1.453000e+000,-6.488260e-007
1.454000e+000,-1.239827e-005
1.455000e+000,-1.776945e-005
1.456000e+000,-1.374106e-005
1.457000e+000,-1.374106e-005
1.458000e+000,-1.655920e-006
1.459000e+000,1.680750e-005
1.460000e+000,1.311481e-005
1.461000e+000,1.177202e-005
1.462000e+000,9.086431e-006
1.463000e+000,7.407940e-006
1.464000e+000,4.722351e-006
1.465000e+000,2.855694e-005
1.466000e+000,1.546470e-005
1.467000e+000,1.365366e-006
1.468000e+000,-2.716900e-005
1.469000e+000,-7.618099e-005
1.470000e+000,-5.671047e-005
1.471000e+000,-7.698490e-006
1.472000e+000,3.929929e-005
1.473000e+000,5.876981e-005
1.474000e+000,6.514808e-005
1.475000e+000,3.459952e-005
1.476000e+000,5.058050e-006
1.477000e+000,-1.508386e-005
1.478000e+000,-7.698490e-006
1.479000e+000,5.729446e-006
1.480000e+000,-5.684302e-006
1.481000e+000,-2.246922e-005
1.482000e+000,-3.522577e-005
1.483000e+000,-3.791136e-005
1.484000e+000,-2.381202e-005
1.485000e+000,-1.273397e-005
1.486000e+000,-4.341509e-006
1.487000e+000,1.412191e-005
1.488000e+000,3.191393e-005
1.489000e+000,3.124253e-005
1.490000e+000,6.065144e-006
1.491000e+000,-8.034189e-006
1.492000e+000,6.939702e-007
1.493000e+000,-6.020000e-006
1.494000e+000,-4.341509e-006
1.495000e+000,-2.663015e-006
1.496000e+000,-2.998713e-006
1.497000e+000,8.750733e-006
1.498000e+000,3.582720e-007
1.499000e+000,-5.684302e-006
1.500000e+000,9.757827e-006
1.501000e+000,2.587136e-005
1.502000e+000,3.426382e-005
1.503000e+000,-3.670113e-006
1.504000e+000,-2.851180e-005
1.505000e+000,-3.522577e-005
1.506000e+000,-2.784040e-005
1.507000e+000,-1.374106e-005
1.508000e+000,-7.362792e-006
1.509000e+000,-1.655920e-006
1.510000e+000,7.072242e-006
1.511000e+000,9.086431e-006
1.512000e+000,8.415034e-006
1.513000e+000,2.036763e-006
1.514000e+000,-1.655920e-006
1.515000e+000,1.029668e-006
1.516000e+000,3.582720e-007
1.517000e+000,-5.684302e-006
1.518000e+000,-5.012905e-006
1.519000e+000,-1.105548e-005
1.520000e+000,-1.105548e-005
1.521000e+000,-8.705592e-006
1.522000e+000,-2.663015e-006
1.523000e+000,-1.655920e-006
1.524000e+000,9.757827e-006
1.525000e+000,9.086431e-006
1.526000e+000,1.365366e-006
1.527000e+000,9.086431e-006
1.528000e+000,1.580040e-005
1.529000e+000,1.042922e-005
1.530000e+000,-5.684302e-006
1.531000e+000,-1.441246e-005
1.532000e+000,-7.027094e-006
1.533000e+000,1.848599e-005
1.534000e+000,3.594231e-005
1.535000e+000,-3.489007e-005
1.536000e+000,-2.784040e-005
1.537000e+000,2.519996e-005
1.538000e+000,5.071304e-005
1.539000e+000,3.728510e-005
1.540000e+000,3.043857e-006
1.541000e+000,-1.172688e-005
1.542000e+000,-2.045503e-005
1.543000e+000,-7.698490e-006
1.544000e+000,1.647180e-005
1.545000e+000,2.184297e-005
1.546000e+000,1.029668e-006
1.547000e+000,-1.004838e-005
1.548000e+000,-2.112643e-005
1.549000e+000,-3.119739e-005
1.550000e+000,-2.851180e-005
1.551000e+000,-1.306967e-005
1.552000e+000,2.687845e-005
1.553000e+000,2.318577e-005
1.554000e+000,1.915739e-005
1.555000e+000,3.043857e-006
1.556000e+000,3.715257e-006
1.557000e+000,-7.362792e-006
1.558000e+000,-1.709805e-005
1.559000e+000,-3.670113e-006
1.560000e+000,3.043857e-006
1.561000e+000,2.257025e-008
1.562000e+000,1.613610e-005
1.563000e+000,3.023543e-005
1.564000e+000,2.016448e-005
1.565000e+000,-1.273397e-005
1.566000e+000,-4.059694e-005
1.567000e+000,-4.059694e-005
1.568000e+000,-3.522577e-005
1.569000e+000,-2.314063e-005
1.570000e+000,-2.112643e-005
1.571000e+000,-8.705592e-006
1.572000e+000,1.029668e-006
1.573000e+000,1.365366e-006
1.574000e+000,1.311481e-005
1.575000e+000,1.680750e-005
1.576000e+000,3.715257e-006
1.577000e+000,6.939702e-007
1.578000e+000,-1.071978e-005
1.579000e+000,-1.206257e-005
1.580000e+000,-8.369887e-006
1.581000e+000,-7.027094e-006
1.582000e+000,3.043857e-006
1.583000e+000,2.251437e-005
1.584000e+000,4.601326e-005
1.585000e+000,3.728510e-005
1.586000e+000,2.318577e-005
1.587000e+000,8.415034e-006
1.588000e+000,2.372461e-006
1.589000e+000,3.582720e-007
1.590000e+000,-5.012905e-006
1.591000e+000,-8.705592e-006
1.592000e+000,-2.998713e-006
1.593000e+000,-2.327317e-006
1.594000e+000,-9.712687e-006
1.595000e+000,-2.112643e-005
1.596000e+000,-1.441246e-005
1.597000e+000,-2.314063e-005
1.598000e+000,-2.213352e-005
1.599000e+000,-2.327317e-006
1.600000e+000,2.419286e-005
1.601000e+000,3.325672e-005
1.602000e+000,3.043857e-006
1.603000e+000,-5.012905e-006
1.604000e+000,-6.611003e-005
1.605000e+000,-5.133930e-005
1.606000e+000,3.715257e-006
1.607000e+000,3.560661e-005
1.608000e+000,4.869885e-005
1.609000e+000,1.747889e-005
1.610000e+000,1.177202e-005
1.611000e+000,-6.020000e-006
1.612000e+000,-2.481912e-005
1.613000e+000,-9.845241e-007
1.614000e+000,1.412191e-005
1.615000e+000,5.729446e-006
1.616000e+000,-2.663015e-006
1.617000e+000,-1.776945e-005
1.618000e+000,-1.944794e-005
1.619000e+000,-4.341509e-006
1.620000e+000,1.177202e-005
1.621000e+000,2.855694e-005
1.622000e+000,1.915739e-005
1.623000e+000,1.445761e-005
1.624000e+000,4.722351e-006
1.625000e+000,-1.655920e-006
1.626000e+000,-7.698490e-006
1.627000e+000,5.729446e-006
1.628000e+000,1.345051e-005
1.629000e+000,6.065144e-006
1.630000e+000,2.372461e-006
1.631000e+000,-3.670113e-006
1.632000e+000,-2.663015e-006
1.633000e+000,-5.684302e-006
1.634000e+000,3.043857e-006
1.635000e+000,1.701065e-006
1.636000e+000,-1.655920e-006
1.637000e+000,-2.327317e-006
1.638000e+000,1.029668e-006
1.639000e+000,1.815029e-005
1.640000e+000,-1.655920e-006
1.641000e+000,-3.670113e-006
1.642000e+000,9.086431e-006
1.643000e+000,3.043857e-006
1.644000e+000,-1.105548e-005
1.645000e+000,-1.844085e-005
1.646000e+000,-1.105548e-005
1.647000e+000,-6.020000e-006
1.648000e+000,2.117158e-005
1.649000e+000,3.997069e-005
1.650000e+000,5.729446e-006
1.651000e+000,-1.575526e-005
1.652000e+000,-2.213352e-005
1.653000e+000,-2.112643e-005
1.654000e+000,-1.038408e-005
1.655000e+000,6.939702e-007
1.656000e+000,-9.712687e-006
1.657000e+000,-1.978364e-005
1.658000e+000,-1.508386e-005
1.659000e+000,-2.448342e-005
1.660000e+000,-2.213352e-005
1.661000e+000,2.036763e-006
1.662000e+000,4.030639e-005
1.663000e+000,3.829220e-005
1.664000e+000,1.781459e-005
1.665000e+000,4.198488e-005
1.666000e+000,3.862790e-005
1.667000e+000,9.086431e-006
1.668000e+000,-3.670113e-006
1.669000e+000,-1.655920e-006
1.670000e+000,1.445761e-005
1.671000e+000,-5.012905e-006
1.672000e+000,-7.953797e-005
1.673000e+000,-6.946701e-005
1.674000e+000,-2.381202e-005
1.675000e+000,1.915739e-005
1.676000e+000,5.339863e-005
1.677000e+000,6.380528e-005
1.678000e+000,7.689752e-005
1.679000e+000,3.090683e-005
1.680000e+000,-9.845241e-007
1.681000e+000,-1.105548e-005
1.682000e+000,-2.314063e-005
1.683000e+000,-3.119739e-005
1.684000e+000,-4.193974e-005
1.685000e+000,-3.992555e-005
1.686000e+000,-2.448342e-005
1.687000e+000,-8.705592e-006
1.688000e+000,-4.341509e-006
1.689000e+000,1.029668e-006
1.690000e+000,1.143632e-005
1.691000e+000,6.400842e-006
1.692000e+000,-1.655920e-006
1.693000e+000,-1.071978e-005
1.694000e+000,-1.105548e-005
1.695000e+000,3.582720e-007
1.696000e+000,-3.670113e-006
1.697000e+000,-4.341509e-006
1.698000e+000,-4.677207e-006
1.699000e+000,-8.369887e-006
1.700000e+000,-4.341509e-006
1.701000e+000,1.029668e-006
1.702000e+000,3.043857e-006
1.703000e+000,1.177202e-005
1.704000e+000,1.076493e-005
1.705000e+000,1.029668e-006
1.706000e+000,-8.369887e-006
1.707000e+000,6.400842e-006
1.708000e+000,1.143632e-005
1.709000e+000,2.372461e-006
1.710000e+000,1.177202e-005
1.711000e+000,1.378621e-005
1.712000e+000,1.714319e-005
1.713000e+000,8.750733e-006
1.714000e+000,-9.845241e-007
1.715000e+000,-5.012905e-006
1.716000e+000,-8.705592e-006
1.717000e+000,5.058050e-006
1.718000e+000,2.083588e-005
1.719000e+000,7.072242e-006
1.720000e+000,-6.355698e-006
1.721000e+000,-3.334415e-006
1.722000e+000,-2.179783e-005
1.723000e+000,-2.246922e-005
1.724000e+000,-8.369887e-006
1.725000e+000,-8.369887e-006
1.726000e+000,-4.677207e-006
1.727000e+000,1.701065e-006
1.728000e+000,-3.131279e-007
1.729000e+000,-3.334415e-006
1.730000e+000,-1.004838e-005
1.731000e+000,-5.684302e-006
1.732000e+000,-2.998713e-006
1.733000e+000,-2.998713e-006
1.734000e+000,4.722351e-006
1.735000e+000,6.400842e-006
1.736000e+000,3.582720e-007
1.737000e+000,4.386653e-006
1.738000e+000,7.407940e-006
1.739000e+000,-7.362792e-006
1.740000e+000,-1.172688e-005
1.741000e+000,-1.071978e-005
1.742000e+000,3.043857e-006
1.743000e+000,2.721415e-005
1.744000e+000,3.762080e-005
1.745000e+000,2.754985e-005
1.746000e+000,8.415034e-006
1.747000e+000,-9.845241e-007
1.748000e+000,-3.670113e-006
1.749000e+000,-9.712687e-006
1.750000e+000,-1.991619e-006
1.751000e+000,2.372461e-006
1.752000e+000,3.043857e-006
1.753000e+000,-2.784040e-005
1.754000e+000,-7.315969e-005
1.755000e+000,-2.683331e-005
1.756000e+000,2.754985e-005
1.757000e+000,4.903455e-005
1.758000e+000,4.634896e-005
1.759000e+000,4.399907e-005
1.760000e+000,1.714319e-005
1.761000e+000,-1.776945e-005
1.762000e+000,-2.314063e-005
1.763000e+000,-1.810515e-005
1.764000e+000,-2.649761e-005
1.765000e+000,-3.992555e-005
1.766000e+000,-2.784040e-005
1.767000e+000,-1.239827e-005
1.768000e+000,1.277911e-005
1.769000e+000,-2.327317e-006
1.770000e+000,-9.041290e-006
1.771000e+000,-7.698490e-006
1.772000e+000,-4.341509e-006
1.773000e+000,-1.655920e-006
1.774000e+000,2.989974e-005
1.775000e+000,5.541282e-005
1.776000e+000,5.809841e-005
1.777000e+000,5.675562e-005
1.778000e+000,4.567757e-005
1.779000e+000,4.050955e-006
1.780000e+000,-3.119739e-005
1.781000e+000,-4.093264e-005
1.782000e+000,-3.589716e-005
1.783000e+000,-2.448342e-005
1.784000e+000,-1.776945e-005
1.785000e+000,-1.709805e-005
1.786000e+000,-1.038408e-005
1.787000e+000,-7.027094e-006
1.788000e+000,-3.670113e-006
1.789000e+000,-6.355698e-006
1.790000e+000,-1.172688e-005
1.791000e+000,-9.845241e-007
1.792000e+000,-3.670113e-006
1.793000e+000,-7.027094e-006
1.794000e+000,7.407940e-006
1.795000e+000,5.729446e-006
1.796000e+000,1.076493e-005
1.797000e+000,1.882169e-005
1.798000e+000,5.729446e-006
1.799000e+000,-9.712687e-006
1.800000e+000,-1.575526e-005
1.801000e+000,-1.105548e-005
1.802000e+000,-3.670113e-006
1.803000e+000,7.072242e-006
1.804000e+000,9.757827e-006
1.805000e+000,6.400842e-006
1.806000e+000,1.714319e-005
1.807000e+000,2.150728e-005
1.808000e+000,5.393748e-006
1.809000e+000,3.715257e-006
1.810000e+000,1.949308e-005
1.811000e+000,3.594231e-005
1.812000e+000,1.982878e-005
1.813000e+000,-1.609096e-005
1.814000e+000,-2.851180e-005
1.815000e+000,-2.414772e-005
1.816000e+000,-2.381202e-005
1.817000e+000,-2.280493e-005
1.818000e+000,-1.374106e-005
1.819000e+000,-4.341509e-006
1.820000e+000,3.582720e-007
1.821000e+000,6.400842e-006
1.822000e+000,5.058050e-006
1.823000e+000,-4.341509e-006
1.824000e+000,3.043857e-006
1.825000e+000,7.072242e-006
1.826000e+000,5.058050e-006
1.827000e+000,3.379555e-006
1.828000e+000,-6.355698e-006
1.829000e+000,-1.441246e-005
1.830000e+000,-4.341509e-006
1.831000e+000,-4.341509e-006
1.832000e+000,2.372461e-006
1.833000e+000,1.848599e-005
1.834000e+000,1.143632e-005
1.835000e+000,1.042922e-005
1.836000e+000,7.743638e-006
1.837000e+000,4.386653e-006
1.838000e+000,4.386653e-006
1.839000e+000,-2.998713e-006
1.840000e+000,-3.670113e-006
1.841000e+000,-1.038408e-005
1.842000e+000,-4.059694e-005
1.843000e+000,-8.222356e-005
1.844000e+000,-3.858275e-005
1.845000e+000,1.110062e-005
1.846000e+000,3.527091e-005
1.847000e+000,3.594231e-005
1.848000e+000,5.474142e-005
1.849000e+000,7.589043e-005
1.850000e+000,3.963499e-005
1.851000e+000,5.172014e-005
1.852000e+000,2.352146e-005
1.853000e+000,-4.005811e-006
1.854000e+000,-1.374106e-005
1.855000e+000,-1.105548e-005
1.856000e+000,-1.340537e-005
1.857000e+000,-1.441246e-005
1.858000e+000,-1.374106e-005
1.859000e+000,-1.642666e-005
1.860000e+000,-2.314063e-005
1.861000e+000,-2.112643e-005
1.862000e+000,-2.582621e-005
1.863000e+000,-2.045503e-005
1.864000e+000,-1.239827e-005
1.865000e+000,3.715257e-006
1.866000e+000,-1.991619e-006
1.867000e+000,-1.139118e-005
1.868000e+000,-6.020000e-006
1.869000e+000,-5.684302e-006
1.870000e+000,-8.034189e-006
1.871000e+000,-2.045503e-005
1.872000e+000,-3.119739e-005
1.873000e+000,-1.374106e-005
1.874000e+000,6.065144e-006
1.875000e+000,1.378621e-005
1.876000e+000,3.795650e-005
1.877000e+000,4.366337e-005
1.878000e+000,1.177202e-005
1.879000e+000,-2.045503e-005
1.880000e+000,-2.045503e-005
1.881000e+000,-1.239827e-005
1.882000e+000,7.072242e-006
1.883000e+000,1.915739e-005
1.884000e+000,2.922834e-005
1.885000e+000,2.620705e-005
1.886000e+000,1.029668e-006
1.887000e+000,-5.348604e-006
1.888000e+000,4.386653e-006
1.889000e+000,2.385716e-005
1.890000e+000,2.587136e-005
1.891000e+000,2.251437e-005
1.892000e+000,1.445761e-005
1.893000e+000,-7.698490e-006
1.894000e+000,-2.079073e-005
1.895000e+000,-3.321158e-005
1.896000e+000,-2.649761e-005
1.897000e+000,-2.448342e-005
1.898000e+000,-1.609096e-005
1.899000e+000,-1.676235e-005
1.900000e+000,-1.239827e-005
1.901000e+000,-4.677207e-006
1.902000e+000,-1.655920e-006
1.903000e+000,-1.991619e-006
1.904000e+000,5.058050e-006
1.905000e+000,1.445761e-005
1.906000e+000,-8.369887e-006
1.907000e+000,-1.776945e-005
1.908000e+000,-1.038408e-005
1.909000e+000,7.743638e-006
1.910000e+000,2.587136e-005
1.911000e+000,7.743638e-006
1.912000e+000,-1.273397e-005
1.913000e+000,-1.991619e-006
1.914000e+000,4.050955e-006
1.915000e+000,-3.131279e-007
1.916000e+000,1.042922e-005
1.917000e+000,3.057113e-005
1.918000e+000,2.721415e-005
1.919000e+000,-3.153309e-005
1.920000e+000,-5.872466e-005
1.921000e+000,4.722351e-006
1.922000e+000,2.519996e-005
1.923000e+000,3.459952e-005
1.924000e+000,3.057113e-005
1.925000e+000,4.634896e-005
1.926000e+000,3.997069e-005
1.927000e+000,8.079336e-006
1.928000e+000,-4.341509e-006
1.929000e+000,-1.306967e-005
1.930000e+000,-1.541955e-005
1.931000e+000,-2.179783e-005
1.932000e+000,-2.851180e-005
1.933000e+000,-2.045503e-005
1.934000e+000,-8.369887e-006
1.935000e+000,-4.341509e-006
1.936000e+000,5.058050e-006
1.937000e+000,8.415034e-006
1.938000e+000,2.372461e-006
1.939000e+000,1.177202e-005
1.940000e+000,1.781459e-005
1.941000e+000,3.715257e-006
1.942000e+000,3.715257e-006
1.943000e+000,1.029668e-006
1.944000e+000,-3.670113e-006
1.945000e+000,-7.698490e-006
1.946000e+000,-9.712687e-006
1.947000e+000,-1.038408e-005
1.948000e+000,4.386653e-006
1.949000e+000,9.757827e-006
1.950000e+000,-1.655920e-006
1.951000e+000,-1.105548e-005
1.952000e+000,-9.041290e-006
1.953000e+000,-6.355698e-006
1.954000e+000,-7.698490e-006
1.955000e+000,-8.705592e-006
1.956000e+000,1.365366e-006
1.957000e+000,1.042922e-005
1.958000e+000,-9.845241e-007
1.959000e+000,-1.991619e-006
1.960000e+000,4.386653e-006
1.961000e+000,1.701065e-006
1.962000e+000,1.029668e-006
1.963000e+000,-8.369887e-006
1.964000e+000,-2.179783e-005
1.965000e+000,-1.709805e-005
1.966000e+000,-1.239827e-005
1.967000e+000,-5.684302e-006
1.968000e+000,4.386653e-006
1.969000e+000,5.058050e-006
1.970000e+000,-4.677207e-006
1.971000e+000,-1.978364e-005
1.972000e+000,-2.381202e-005
1.973000e+000,-2.045503e-005
1.974000e+000,-2.998713e-006
1.975000e+000,1.042922e-005
1.976000e+000,2.184297e-005
1.977000e+000,2.788555e-005
1.978000e+000,3.661371e-005
1.979000e+000,3.862790e-005
1.980000e+000,3.728510e-005
1.981000e+000,1.781459e-005
1.982000e+000,-6.020000e-006
1.983000e+000,-3.656856e-005
1.984000e+000,-4.932510e-005
1.985000e+000,-3.119739e-005
1.986000e+000,-1.575526e-005
1.987000e+000,-4.005811e-006
1.988000e+000,6.065144e-006
1.989000e+000,-6.355698e-006
1.990000e+000,-1.306967e-005
1.991000e+000,-1.655920e-006
1.992000e+000,1.042922e-005
1.993000e+000,1.009353e-005
1.994000e+000,7.743638e-006
1.995000e+000,-1.655920e-006
1.996000e+000,3.043857e-006
1.997000e+000,-2.998713e-006
1.998000e+000,-6.691396e-006
1.999000e+000,1.029668e-006
2.000000e+000,7.072242e-006
2.001000e+000,1.512900e-005
2.002000e+000,3.157823e-005
2.003000e+000,2.050018e-005
2.004000e+000,5.729446e-006
2.005000e+000,-1.320222e-006
2.006000e+000,-1.139118e-005
2.007000e+000,-2.179783e-005
2.008000e+000,-2.750470e-005
2.009000e+000,-8.088076e-005
2.010000e+000,-3.858275e-005
2.011000e+000,1.009353e-005
2.012000e+000,2.721415e-005
2.013000e+000,2.251437e-005
2.014000e+000,1.815029e-005
2.015000e+000,4.802746e-005
2.016000e+000,5.574852e-005
2.017000e+000,4.265628e-005
2.018000e+000,1.210772e-005
2.019000e+000,5.058050e-006
2.020000e+000,1.076493e-005
2.021000e+000,1.029668e-006
2.022000e+000,-1.340537e-005
2.023000e+000,-1.105548e-005
2.024000e+000,-1.139118e-005
2.025000e+000,-6.355698e-006
2.026000e+000,-1.273397e-005
2.027000e+000,-1.441246e-005
2.028000e+000,-1.306967e-005
2.029000e+000,-1.306967e-005
2.030000e+000,-1.441246e-005
2.031000e+000,-1.508386e-005
2.032000e+000,-1.541955e-005
2.033000e+000,-9.712687e-006
2.034000e+000,-1.239827e-005
2.035000e+000,-7.698490e-006
2.036000e+000,-3.334415e-006
2.037000e+000,-9.041290e-006
2.038000e+000,-6.488260e-007
2.039000e+000,1.029668e-006
2.040000e+000,1.311481e-005
2.041000e+000,1.479331e-005
2.042000e+000,1.781459e-005
2.043000e+000,2.372461e-006
2.044000e+000,-1.991619e-006
2.045000e+000,-2.327317e-006
2.046000e+000,3.043857e-006
2.047000e+000,-2.327317e-006
2.048000e+000,-2.327317e-006
2.049000e+000,6.939702e-007
2.050000e+000,3.043857e-006
2.051000e+000,9.757827e-006
2.052000e+000,1.177202e-005
2.053000e+000,1.311481e-005
2.054000e+000,8.079336e-006
2.055000e+000,-3.131279e-007
2.056000e+000,-6.355698e-006
2.057000e+000,6.400842e-006
2.058000e+000,1.177202e-005
2.059000e+000,3.715257e-006
2.060000e+000,3.582720e-007
2.061000e+000,-3.670113e-006
2.062000e+000,-6.355698e-006
2.063000e+000,-2.998713e-006
2.064000e+000,-4.341509e-006
2.065000e+000,3.043857e-006
2.066000e+000,5.393748e-006
2.067000e+000,6.939702e-007
2.068000e+000,-3.334415e-006
2.069000e+000,-6.355698e-006
2.070000e+000,-9.845241e-007
2.071000e+000,1.029668e-006
2.072000e+000,-3.131279e-007
2.073000e+000,-3.670113e-006
2.074000e+000,-7.362792e-006
2.075000e+000,-1.239827e-005
2.076000e+000,-2.079073e-005
2.077000e+000,-5.012905e-006
2.078000e+000,3.715257e-006
2.079000e+000,7.072242e-006
2.080000e+000,9.086431e-006
2.081000e+000,9.086431e-006
2.082000e+000,2.519996e-005
2.083000e+000,9.757827e-006
2.084000e+000,-1.306967e-005
2.085000e+000,-1.374106e-005
2.086000e+000,-4.677207e-006
2.087000e+000,1.311481e-005
2.088000e+000,1.029668e-006
2.089000e+000,-1.655920e-006
2.090000e+000,1.143632e-005
2.091000e+000,-2.998713e-006
2.092000e+000,1.647180e-005
2.093000e+000,2.050018e-005
2.094000e+000,-6.020000e-006
2.095000e+000,-1.709805e-005
2.096000e+000,-2.314063e-005
2.097000e+000,-1.911224e-005
2.098000e+000,-2.179783e-005
2.099000e+000,-2.448342e-005
2.100000e+000,-2.716900e-005
2.101000e+000,-2.582621e-005
2.102000e+000,1.029668e-006
2.103000e+000,3.392812e-005
2.104000e+000,-5.684302e-006
2.105000e+000,-2.112643e-005
2.106000e+000,1.412191e-005
2.107000e+000,4.903455e-005
2.108000e+000,6.212679e-005
2.109000e+000,4.097779e-005
2.110000e+000,2.452856e-005
2.111000e+000,2.708159e-006
2.112000e+000,2.372461e-006
2.113000e+000,-2.998713e-006
2.114000e+000,-1.004838e-005
2.115000e+000,-1.105548e-005
2.116000e+000,-1.273397e-005
2.117000e+000,-1.105548e-005
2.118000e+000,-9.041290e-006
2.119000e+000,-9.712687e-006
2.120000e+000,-9.712687e-006
2.121000e+000,-1.139118e-005
2.122000e+000,-1.172688e-005
2.123000e+000,-1.273397e-005
2.124000e+000,-1.239827e-005
2.125000e+000,-1.709805e-005
2.126000e+000,-1.105548e-005
2.127000e+000,-9.712687e-006
2.128000e+000,-6.020000e-006
2.129000e+000,3.043857e-006
2.130000e+000,8.415034e-006
2.131000e+000,9.086431e-006
2.132000e+000,1.244342e-005
2.133000e+000,7.743638e-006
2.134000e+000,6.065144e-006
2.135000e+000,4.386653e-006
2.136000e+000,-1.655920e-006
2.137000e+000,-7.698490e-006
2.138000e+000,-1.340537e-005
2.139000e+000,7.072242e-006
2.140000e+000,3.057113e-005
2.141000e+000,1.680750e-005
2.142000e+000,-1.709805e-005
2.143000e+000,-2.448342e-005
2.144000e+000,-1.038408e-005
2.145000e+000,9.086431e-006
2.146000e+000,3.582720e-007
2.147000e+000,-1.320222e-006
2.148000e+000,-3.131279e-007
2.149000e+000,2.708159e-006
2.150000e+000,4.386653e-006
2.151000e+000,8.415034e-006
2.152000e+000,1.701065e-006
2.153000e+000,3.582720e-007
2.154000e+000,6.939702e-007
2.155000e+000,-1.038408e-005
2.156000e+000,-1.407676e-005
2.157000e+000,-1.273397e-005
2.158000e+000,-5.012905e-006
2.159000e+000,3.582720e-007
2.160000e+000,3.043857e-006
2.161000e+000,1.029668e-006
2.162000e+000,1.915739e-005
2.163000e+000,4.131349e-005
2.164000e+000,2.587136e-005
2.165000e+000,-1.655920e-006
2.166000e+000,-5.684302e-006
2.167000e+000,2.855694e-005
2.168000e+000,3.325672e-005
2.169000e+000,1.110062e-005
2.170000e+000,-9.041290e-006
2.171000e+000,-1.004838e-005
2.172000e+000,-8.369887e-006
2.173000e+000,-9.712687e-006
2.174000e+000,-1.038408e-005
2.175000e+000,-9.041290e-006
2.176000e+000,-1.038408e-005
2.177000e+000,-1.139118e-005
2.178000e+000,-9.845241e-007
2.179000e+000,-1.105548e-005
2.180000e+000,-1.944794e-005
2.181000e+000,-2.146213e-005
2.182000e+000,-1.676235e-005
2.183000e+000,-2.327317e-006
2.184000e+000,1.177202e-005
2.185000e+000,1.915739e-005
2.186000e+000,1.445761e-005
2.187000e+000,3.043857e-006
2.188000e+000,-1.206257e-005
2.189000e+000,-2.045503e-005
2.190000e+000,-2.112643e-005
2.191000e+000,-6.691396e-006
2.192000e+000,7.072242e-006
2.193000e+000,2.519996e-005
2.194000e+000,3.728510e-005
2.195000e+000,2.519996e-005
2.196000e+000,3.582720e-007
2.197000e+000,-1.139118e-005
2.198000e+000,-1.374106e-005
2.199000e+000,-1.306967e-005
2.200000e+000,-1.407676e-005
2.201000e+000,7.407940e-006
2.202000e+000,2.117158e-005
2.203000e+000,1.445761e-005
2.204000e+000,8.750733e-006
2.205000e+000,5.058050e-006
2.206000e+000,-9.712687e-006
2.207000e+000,-1.508386e-005
2.208000e+000,-1.239827e-005
2.209000e+000,-1.239827e-005
2.210000e+000,-9.712687e-006
2.211000e+000,-7.698490e-006
2.212000e+000,-1.239827e-005
2.213000e+000,-7.698490e-006
2.214000e+000,3.582720e-007
2.215000e+000,2.257025e-008
2.216000e+000,4.386653e-006
2.217000e+000,-3.131279e-007
2.218000e+000,-2.663015e-006
2.219000e+000,-3.791136e-005
2.220000e+000,-5.469628e-005
2.221000e+000,-7.362792e-006
2.222000e+000,3.728510e-005
2.223000e+000,5.876981e-005
2.224000e+000,3.862790e-005
2.225000e+000,2.654275e-005
2.226000e+000,6.400842e-006
2.227000e+000,-9.845241e-007
2.228000e+000,7.407940e-006
2.229000e+000,2.372461e-006
2.230000e+000,-8.369887e-006
2.231000e+000,-8.369887e-006
2.232000e+000,2.036763e-006
2.233000e+000,-9.041290e-006
2.234000e+000,-1.441246e-005
2.235000e+000,-7.698490e-006
2.236000e+000,-3.334415e-006
2.237000e+000,-3.334415e-006
2.238000e+000,-7.362792e-006
2.239000e+000,5.058050e-006
2.240000e+000,2.486426e-005
2.241000e+000,-4.341509e-006
2.242000e+000,-9.041290e-006
2.243000e+000,-1.655920e-006
2.244000e+000,3.043857e-006
2.245000e+000,1.029668e-006
2.246000e+000,-1.139118e-005
2.247000e+000,-1.172688e-005
2.248000e+000,-6.488260e-007
2.249000e+000,-4.341509e-006
2.250000e+000,1.042922e-005
2.251000e+000,1.009353e-005
2.252000e+000,7.743638e-006
2.253000e+000,6.400842e-006
2.254000e+000,1.714319e-005
2.255000e+000,-1.655920e-006
2.256000e+000,-1.004838e-005
2.257000e+000,-1.071978e-005
2.258000e+000,7.407940e-006
2.259000e+000,1.311481e-005
2.260000e+000,1.042922e-005
2.261000e+000,7.743638e-006
2.262000e+000,-1.991619e-006
2.263000e+000,-1.655920e-006
2.264000e+000,1.029668e-006
2.265000e+000,-8.369887e-006
2.266000e+000,-1.239827e-005
2.267000e+000,-1.273397e-005
2.268000e+000,-7.362792e-006
2.269000e+000,-5.684302e-006
2.270000e+000,3.715257e-006
2.271000e+000,1.613610e-005
2.272000e+000,3.043857e-006
2.273000e+000,-1.944794e-005
2.274000e+000,-3.153309e-005
2.275000e+000,-2.716900e-005
2.276000e+000,-7.027094e-006
2.277000e+000,1.378621e-005
2.278000e+000,2.486426e-005
2.279000e+000,2.587136e-005
2.280000e+000,2.318577e-005
2.281000e+000,8.415034e-006
2.282000e+000,2.372461e-006
2.283000e+000,-7.698490e-006
2.284000e+000,-1.105548e-005
2.285000e+000,7.072242e-006
2.286000e+000,8.079336e-006
2.287000e+000,1.029668e-006
2.288000e+000,-7.027094e-006
2.289000e+000,-4.341509e-006
2.290000e+000,-5.684302e-006
2.291000e+000,-1.105548e-005
2.292000e+000,-7.027094e-006
2.293000e+000,-2.998713e-006
2.294000e+000,-5.684302e-006
2.295000e+000,-1.038408e-005
2.296000e+000,-5.637477e-005
2.297000e+000,-3.824706e-005
2.298000e+000,2.654275e-005
2.299000e+000,5.876981e-005
2.300000e+000,4.366337e-005
2.301000e+000,1.982878e-005
2.302000e+000,1.177202e-005
2.303000e+000,-3.131279e-007
2.304000e+000,-3.131279e-007
2.305000e+000,1.177202e-005
2.306000e+000,1.311481e-005
2.307000e+000,8.415034e-006
2.308000e+000,-3.670113e-006
2.309000e+000,-2.179783e-005
2.310000e+000,-2.985460e-005
2.311000e+000,-2.381202e-005
2.312000e+000,-1.844085e-005
2.313000e+000,-4.677207e-006
2.314000e+000,-4.341509e-006
2.315000e+000,-1.441246e-005
2.316000e+000,2.036763e-006
2.317000e+000,2.754985e-005
2.318000e+000,2.352146e-005
2.319000e+000,1.680750e-005
2.320000e+000,-9.845241e-007
2.321000e+000,-8.034189e-006
2.322000e+000,-9.712687e-006
2.323000e+000,-9.712687e-006
2.324000e+000,-1.105548e-005
2.325000e+000,-1.655920e-006
2.326000e+000,9.757827e-006
2.327000e+000,8.750733e-006
2.328000e+000,5.058050e-006
2.329000e+000,6.939702e-007
2.330000e+000,-1.541955e-005
2.331000e+000,-2.314063e-005
2.332000e+000,-1.978364e-005
2.333000e+000,-1.709805e-005
2.334000e+000,-3.670113e-006
2.335000e+000,-3.670113e-006
2.336000e+000,-2.998713e-006
2.337000e+000,-1.655920e-006
2.338000e+000,5.058050e-006
2.339000e+000,7.072242e-006
2.340000e+000,8.750733e-006
2.341000e+000,1.647180e-005
2.342000e+000,2.587136e-005
2.343000e+000,1.110062e-005
2.344000e+000,1.029668e-006
2.345000e+000,-2.327317e-006
2.346000e+000,-3.131279e-007
2.347000e+000,3.379555e-006
2.348000e+000,7.743638e-006
2.349000e+000,7.743638e-006
2.350000e+000,5.729446e-006
2.351000e+000,5.058050e-006
2.352000e+000,-1.655920e-006
2.353000e+000,-1.991619e-006
2.354000e+000,1.009353e-005
2.355000e+000,7.072242e-006
2.356000e+000,-3.670113e-006
2.357000e+000,-6.020000e-006
2.358000e+000,-1.441246e-005
2.359000e+000,-7.027094e-006
2.360000e+000,-9.845241e-007
2.361000e+000,8.415034e-006
2.362000e+000,1.848599e-005
2.363000e+000,1.479331e-005
2.364000e+000,-3.131279e-007
2.365000e+000,-9.041290e-006
2.366000e+000,-7.027094e-006
2.367000e+000,-1.944794e-005
2.368000e+000,-4.126834e-005
2.369000e+000,-5.066790e-005
2.370000e+000,-4.496103e-005
2.371000e+000,-1.575526e-005
2.372000e+000,3.715257e-006
2.373000e+000,3.191393e-005
2.374000e+000,6.212679e-005
2.375000e+000,6.246249e-005
2.376000e+000,3.057113e-005
2.377000e+000,1.445761e-005
2.378000e+000,-4.341509e-006
2.379000e+000,-1.004838e-005
2.380000e+000,-8.369887e-006
2.381000e+000,-1.172688e-005
2.382000e+000,-3.131279e-007
2.383000e+000,3.715257e-006
2.384000e+000,-9.712687e-006
2.385000e+000,-1.139118e-005
2.386000e+000,-5.684302e-006
2.387000e+000,-4.341509e-006
2.388000e+000,-5.012905e-006
2.389000e+000,-1.655920e-006
2.390000e+000,-7.027094e-006
2.391000e+000,-6.611003e-005
2.392000e+000,-3.388297e-005
2.393000e+000,1.848599e-005
2.394000e+000,4.668466e-005
2.395000e+000,3.795650e-005
2.396000e+000,3.560661e-005
2.397000e+000,1.580040e-005
2.398000e+000,-1.709805e-005
2.399000e+000,-1.844085e-005
2.400000e+000,-2.112643e-005
2.401000e+000,-2.112643e-005
2.402000e+000,-9.041290e-006
2.403000e+000,-2.327317e-006
2.404000e+000,9.422129e-006
2.405000e+000,8.415034e-006
2.406000e+000,1.580040e-005
2.407000e+000,1.714319e-005
2.408000e+000,-5.684302e-006
2.409000e+000,-2.381202e-005
2.410000e+000,-2.347632e-005
2.411000e+000,-1.709805e-005
2.412000e+000,-9.712687e-006
2.413000e+000,1.177202e-005
2.414000e+000,1.781459e-005
2.415000e+000,1.277911e-005
2.416000e+000,2.452856e-005
2.417000e+000,2.050018e-005
2.418000e+000,3.582720e-007
2.419000e+000,-6.488260e-007
2.420000e+000,1.701065e-006
2.421000e+000,-5.684302e-006
2.422000e+000,-6.020000e-006
2.423000e+000,-6.020000e-006
2.424000e+000,-2.998713e-006
2.425000e+000,-6.020000e-006
2.426000e+000,-6.488260e-007
2.427000e+000,-1.991619e-006
2.428000e+000,-9.845241e-007
2.429000e+000,-4.341509e-006
2.430000e+000,-5.684302e-006
2.431000e+000,-9.845241e-007
2.432000e+000,-1.320222e-006
2.433000e+000,-3.131279e-007
2.434000e+000,-3.670113e-006
2.435000e+000,-9.845241e-007
2.436000e+000,7.407940e-006
2.437000e+000,9.086431e-006
2.438000e+000,1.177202e-005
2.439000e+000,-9.845241e-007
2.440000e+000,-4.341509e-006
2.441000e+000,-9.845241e-007
2.442000e+000,3.715257e-006
2.443000e+000,1.701065e-006
2.444000e+000,-9.845241e-007
2.445000e+000,1.701065e-006
2.446000e+000,-9.041290e-006
2.447000e+000,-1.071978e-005
2.448000e+000,-1.374106e-005
2.449000e+000,-1.575526e-005
2.450000e+000,-7.027094e-006
2.451000e+000,-2.327317e-006
2.452000e+000,2.922834e-005
2.453000e+000,4.668466e-005
2.454000e+000,3.325672e-005
2.455000e+000,1.982878e-005
2.456000e+000,3.715257e-006
2.457000e+000,-5.684302e-006
2.458000e+000,-7.362792e-006
2.459000e+000,-9.712687e-006
2.460000e+000,-1.105548e-005
2.461000e+000,-9.712687e-006
2.462000e+000,-9.712687e-006
2.463000e+000,-1.655920e-006
2.464000e+000,-2.998713e-006
2.465000e+000,1.029668e-006
2.466000e+000,-1.642666e-005
2.467000e+000,-3.254018e-005
2.468000e+000,-1.508386e-005
2.469000e+000,5.058050e-006
2.470000e+000,2.372461e-006
2.471000e+000,6.065144e-006
2.472000e+000,1.177202e-005
2.473000e+000,2.822124e-005
2.474000e+000,2.217867e-005
2.475000e+000,7.743638e-006
2.476000e+000,2.708159e-006
2.477000e+000,4.722351e-006
2.478000e+000,-6.355698e-006
2.479000e+000,-1.239827e-005
2.480000e+000,-1.172688e-005
2.481000e+000,-1.071978e-005
2.482000e+000,-8.705592e-006
2.483000e+000,-9.376988e-006
2.484000e+000,-1.038408e-005
2.485000e+000,-5.012905e-006
2.486000e+000,1.701065e-006
2.487000e+000,1.029668e-006
2.488000e+000,1.029668e-006
2.489000e+000,1.701065e-006
2.490000e+000,5.058050e-006
2.491000e+000,-1.655920e-006
2.492000e+000,-2.179783e-005
2.493000e+000,-4.395393e-005
2.494000e+000,-7.027094e-006
2.495000e+000,3.459952e-005
2.496000e+000,5.675562e-005
2.497000e+000,3.795650e-005
2.498000e+000,7.072242e-006
2.499000e+000,-6.355698e-006
2.500000e+000,-2.011934e-005
2.501000e+000,-2.280493e-005
2.502000e+000,-1.374106e-005
2.503000e+000,-2.327317e-006
2.504000e+000,9.086431e-006
2.505000e+000,5.729446e-006
2.506000e+000,-5.012905e-006
2.507000e+000,-3.670113e-006
2.508000e+000,-5.684302e-006
2.509000e+000,-8.369887e-006
2.510000e+000,-6.691396e-006
2.511000e+000,-8.369887e-006
2.512000e+000,-8.369887e-006
2.513000e+000,-9.712687e-006
2.514000e+000,-9.712687e-006
2.515000e+000,-7.698490e-006
2.516000e+000,1.580040e-005
2.517000e+000,2.452856e-005
2.518000e+000,2.788555e-005
2.519000e+000,1.915739e-005
2.520000e+000,1.042922e-005
2.521000e+000,7.743638e-006
2.522000e+000,-4.677207e-006
2.523000e+000,-7.027094e-006
2.524000e+000,3.043857e-006
2.525000e+000,3.715257e-006
2.526000e+000,3.715257e-006
2.527000e+000,-3.131279e-007
2.528000e+000,1.029668e-006
2.529000e+000,3.582720e-007
2.530000e+000,-2.998713e-006
2.531000e+000,-6.355698e-006
2.532000e+000,-8.705592e-006
2.533000e+000,-4.341509e-006
2.534000e+000,-4.341509e-006
2.535000e+000,-6.691396e-006
2.536000e+000,-6.355698e-006
2.537000e+000,-5.012905e-006
2.538000e+000,-6.020000e-006
2.539000e+000,-6.355698e-006
2.540000e+000,-1.441246e-005
2.541000e+000,3.582720e-007
2.542000e+000,1.848599e-005
2.543000e+000,9.757827e-006
2.544000e+000,1.365366e-006
2.545000e+000,-5.012905e-006
2.546000e+000,-6.355698e-006
2.547000e+000,-1.004838e-005
2.548000e+000,-8.369887e-006
2.549000e+000,-7.027094e-006
2.550000e+000,-2.327317e-006
2.551000e+000,-2.327317e-006
2.552000e+000,6.400842e-006
2.553000e+000,1.345051e-005
2.554000e+000,-1.655920e-006
2.555000e+000,-1.407676e-005
2.556000e+000,-8.705592e-006
2.557000e+000,1.982878e-005
2.558000e+000,2.050018e-005
2.559000e+000,1.714319e-005
2.560000e+000,1.982878e-005
2.561000e+000,1.445761e-005
2.562000e+000,4.050955e-006
2.563000e+000,-1.655920e-006
2.564000e+000,-1.105548e-005
2.565000e+000,-1.105548e-005
2.566000e+000,-9.712687e-006
2.567000e+000,-5.012905e-006
2.568000e+000,7.743638e-006
2.569000e+000,6.400842e-006
2.570000e+000,-3.334415e-006
2.571000e+000,-9.041290e-006
2.572000e+000,-2.582621e-005
2.573000e+000,-8.705592e-006
2.574000e+000,1.177202e-005
2.575000e+000,1.378621e-005
2.576000e+000,1.311481e-005
2.577000e+000,1.848599e-005
2.578000e+000,2.150728e-005
2.579000e+000,-3.334415e-006
2.580000e+000,-1.441246e-005
2.581000e+000,-5.348604e-006
2.582000e+000,2.708159e-006
2.583000e+000,-9.845241e-007
2.584000e+000,-7.362792e-006
2.585000e+000,-6.020000e-006
2.586000e+000,3.582720e-007
2.587000e+000,-1.273397e-005
2.588000e+000,-1.508386e-005
2.589000e+000,-5.684302e-006
2.590000e+000,9.422129e-006
2.591000e+000,-2.381202e-005
2.592000e+000,-5.671047e-005
2.593000e+000,-2.381202e-005
2.594000e+000,1.445761e-005
2.595000e+000,3.862790e-005
2.596000e+000,6.078400e-005
2.597000e+000,4.668466e-005
2.598000e+000,2.452856e-005
2.599000e+000,9.086431e-006
2.600000e+000,-5.684302e-006
2.601000e+000,1.029668e-006
2.602000e+000,-7.698490e-006
2.603000e+000,-7.027094e-006
2.604000e+000,-6.355698e-006
2.605000e+000,-1.038408e-005
2.606000e+000,-1.374106e-005
2.607000e+000,-1.239827e-005
2.608000e+000,-1.139118e-005
2.609000e+000,-7.027094e-006
2.610000e+000,-8.705592e-006
2.611000e+000,-9.041290e-006
2.612000e+000,-3.670113e-006
2.613000e+000,-4.341509e-006
2.614000e+000,-1.655920e-006
2.615000e+000,-1.991619e-006
2.616000e+000,-5.684302e-006
2.617000e+000,-9.845241e-007
2.618000e+000,3.582720e-007
2.619000e+000,1.029668e-006
2.620000e+000,1.029668e-006
2.621000e+000,1.701065e-006
2.622000e+000,1.029668e-006
2.623000e+000,5.729446e-006
2.624000e+000,5.058050e-006
2.625000e+000,9.086431e-006
2.626000e+000,1.311481e-005
2.627000e+000,6.939702e-007
2.628000e+000,-1.105548e-005
2.629000e+000,-1.978364e-005
2.630000e+000,-5.684302e-006
2.631000e+000,1.009353e-005
2.632000e+000,1.244342e-005
2.633000e+000,2.217867e-005
2.634000e+000,1.445761e-005
2.635000e+000,1.311481e-005
2.636000e+000,-9.845241e-007
2.637000e+000,-5.684302e-006
2.638000e+000,-2.998713e-006
2.639000e+000,-9.041290e-006
2.640000e+000,1.365366e-006
2.641000e+000,6.736540e-006
2.642000e+000,1.029668e-006
2.643000e+000,-4.677207e-006
2.644000e+000,-7.027094e-006
2.645000e+000,-4.341509e-006
2.646000e+000,-8.369887e-006
2.647000e+000,-1.609096e-005
2.648000e+000,-1.508386e-005
2.649000e+000,-6.691396e-006
2.650000e+000,3.582720e-007
2.651000e+000,-3.131279e-007
2.652000e+000,-2.327317e-006
2.653000e+000,2.372461e-006
2.654000e+000,4.386653e-006
2.655000e+000,5.058050e-006
2.656000e+000,1.378621e-005
2.657000e+000,1.042922e-005
2.658000e+000,-9.845241e-007
2.659000e+000,-3.131279e-007
2.660000e+000,6.065144e-006
2.661000e+000,1.029668e-006
2.662000e+000,-1.004838e-005
2.663000e+000,-7.698490e-006
2.664000e+000,-9.712687e-006
2.665000e+000,-5.012905e-006
2.666000e+000,-2.998713e-006
2.667000e+000,-2.327317e-006
2.668000e+000,6.065144e-006
2.669000e+000,-9.845241e-007
2.670000e+000,-4.677207e-006
2.671000e+000,-8.705592e-006
2.672000e+000,3.379555e-006
2.673000e+000,7.743638e-006
2.674000e+000,1.042922e-005
2.675000e+000,1.177202e-005
2.676000e+000,2.385716e-005
2.677000e+000,1.378621e-005
2.678000e+000,3.582720e-007
2.679000e+000,-4.341509e-006
2.680000e+000,-3.131279e-007
2.681000e+000,-1.575526e-005
2.682000e+000,-2.011934e-005
2.683000e+000,-1.676235e-005
2.684000e+000,-1.374106e-005
2.685000e+000,3.582720e-007
2.686000e+000,1.244342e-005
2.687000e+000,2.318577e-005
2.688000e+000,3.124253e-005
2.689000e+000,1.781459e-005
2.690000e+000,2.036763e-006
2.691000e+000,-3.670113e-006
2.692000e+000,-1.655920e-006
2.693000e+000,-8.034189e-006
2.694000e+000,-8.369887e-006
2.695000e+000,-1.139118e-005
2.696000e+000,-1.105548e-005
2.697000e+000,-3.131279e-007
2.698000e+000,-9.845241e-007
2.699000e+000,-2.663015e-006
2.700000e+000,-6.020000e-006
2.701000e+000,-7.698490e-006
2.702000e+000,1.029668e-006
2.703000e+000,2.372461e-006
2.704000e+000,1.029668e-006
2.705000e+000,3.715257e-006
2.706000e+000,6.065144e-006
2.707000e+000,-1.655920e-006
2.708000e+000,-2.327317e-006
2.709000e+000,1.701065e-006
2.710000e+000,-1.991619e-006
2.711000e+000,-1.320222e-006
2.712000e+000,3.582720e-007
2.713000e+000,2.372461e-006
2.714000e+000,-1.655920e-006
2.715000e+000,2.708159e-006
2.716000e+000,6.939702e-007
2.717000e+000,-3.131279e-007
2.718000e+000,-2.327317e-006
2.719000e+000,-1.320222e-006
2.720000e+000,-3.131279e-007
2.721000e+000,-9.845241e-007
2.722000e+000,3.043857e-006
2.723000e+000,6.939702e-007
2.724000e+000,-6.355698e-006
2.725000e+000,-8.369887e-006
2.726000e+000,-5.684302e-006
2.727000e+000,-8.705592e-006
2.728000e+000,-3.670113e-006
2.729000e+000,-6.691396e-006
2.730000e+000,-1.038408e-005
2.731000e+000,-2.327317e-006
2.732000e+000,-4.341509e-006
2.733000e+000,-1.991619e-006
2.734000e+000,7.072242e-006
2.735000e+000,4.386653e-006
2.736000e+000,2.050018e-005
2.737000e+000,1.042922e-005
2.738000e+000,1.882169e-005
2.739000e+000,1.378621e-005
2.740000e+000,-4.677207e-006
2.741000e+000,-1.038408e-005
2.742000e+000,-3.670113e-006
2.743000e+000,1.701065e-006
2.744000e+000,5.058050e-006
2.745000e+000,4.386653e-006
2.746000e+000,1.029668e-006
2.747000e+000,6.400842e-006
2.748000e+000,1.701065e-006
2.749000e+000,-2.327317e-006
2.750000e+000,-1.655920e-006
2.751000e+000,-3.334415e-006
2.752000e+000,-1.038408e-005
2.753000e+000,-3.791136e-005
2.754000e+000,-6.678143e-005
2.755000e+000,-3.119739e-005
2.756000e+000,2.855694e-005
2.757000e+000,8.294010e-005
2.758000e+000,9.334675e-005
2.759000e+000,6.548378e-005
2.760000e+000,1.915739e-005
2.761000e+000,-1.441246e-005
2.762000e+000,-1.441246e-005
2.763000e+000,-1.139118e-005
2.764000e+000,-1.776945e-005
2.765000e+000,-1.441246e-005
2.766000e+000,-1.575526e-005
2.767000e+000,-1.407676e-005
2.768000e+000,3.582720e-007
2.769000e+000,-9.712687e-006
2.770000e+000,-1.239827e-005
2.771000e+000,-1.340537e-005
2.772000e+000,-2.663015e-006
2.773000e+000,-1.655920e-006
2.774000e+000,-8.705592e-006
2.775000e+000,-1.374106e-005
2.776000e+000,-2.347632e-005
2.777000e+000,-2.515482e-005
2.778000e+000,-1.709805e-005
2.779000e+000,-9.712687e-006
2.780000e+000,-1.655920e-006
2.781000e+000,2.257025e-008
2.782000e+000,2.419286e-005
2.783000e+000,3.594231e-005
2.784000e+000,3.325672e-005
2.785000e+000,2.654275e-005
2.786000e+000,1.177202e-005
2.787000e+000,-7.698490e-006
2.788000e+000,-1.709805e-005
2.789000e+000,-1.642666e-005
2.790000e+000,-1.306967e-005
2.791000e+000,-3.334415e-006
2.792000e+000,1.365366e-006
2.793000e+000,-4.677207e-006
2.794000e+000,-7.362792e-006
2.795000e+000,-9.845241e-007
2.796000e+000,-3.670113e-006
2.797000e+000,-1.071978e-005
2.798000e+000,4.722351e-006
2.799000e+000,9.086431e-006
2.800000e+000,1.042922e-005
2.801000e+000,3.715257e-006
2.802000e+000,-1.320222e-006
2.803000e+000,9.086431e-006
2.804000e+000,5.058050e-006
2.805000e+000,-7.362792e-006
2.806000e+000,-8.705592e-006
2.807000e+000,1.143632e-005
2.808000e+000,2.251437e-005
2.809000e+000,1.009353e-005
2.810000e+000,-5.684302e-006
2.811000e+000,-1.038408e-005
2.812000e+000,-1.944794e-005
2.813000e+000,-3.019029e-005
2.814000e+000,-1.978364e-005
2.815000e+000,-1.655920e-006
2.816000e+000,1.244342e-005
2.817000e+000,1.815029e-005
2.818000e+000,1.445761e-005
2.819000e+000,1.311481e-005
2.820000e+000,1.110062e-005
2.821000e+000,-5.012905e-006
2.822000e+000,-1.642666e-005
2.823000e+000,-2.314063e-005
2.824000e+000,-2.985460e-005
2.825000e+000,-2.448342e-005
2.826000e+000,-1.239827e-005
2.827000e+000,6.939702e-007
2.828000e+000,1.915739e-005
2.829000e+000,2.117158e-005
2.830000e+000,1.848599e-005
2.831000e+000,1.143632e-005
2.832000e+000,7.072242e-006
2.833000e+000,1.143632e-005
2.834000e+000,8.415034e-006
2.835000e+000,3.715257e-006
2.836000e+000,5.058050e-006
2.837000e+000,1.701065e-006
2.838000e+000,-4.341509e-006
2.839000e+000,-1.306967e-005
2.840000e+000,-1.038408e-005
2.841000e+000,-6.020000e-006
2.842000e+000,-1.655920e-006
2.843000e+000,-6.020000e-006
2.844000e+000,-4.341509e-006
2.845000e+000,2.050018e-005
2.846000e+000,2.721415e-005
2.847000e+000,8.415034e-006
2.848000e+000,2.257025e-008
2.849000e+000,-1.655920e-006
2.850000e+000,-1.991619e-006
2.851000e+000,1.701065e-006
2.852000e+000,-1.105548e-005
2.853000e+000,-1.273397e-005
2.854000e+000,2.372461e-006
2.855000e+000,5.058050e-006
2.856000e+000,7.743638e-006
2.857000e+000,1.647180e-005
2.858000e+000,1.177202e-005
2.859000e+000,1.714319e-005
2.860000e+000,6.400842e-006
2.861000e+000,-6.355698e-006
2.862000e+000,-1.172688e-005
2.863000e+000,-1.374106e-005
2.864000e+000,-1.038408e-005
2.865000e+000,-1.655920e-006
2.866000e+000,-9.845241e-007
2.867000e+000,-2.327317e-006
2.868000e+000,-5.012905e-006
2.869000e+000,-9.041290e-006
2.870000e+000,-9.712687e-006
2.871000e+000,-2.327317e-006
2.872000e+000,9.086431e-006
2.873000e+000,1.177202e-005
2.874000e+000,-6.488260e-007
2.875000e+000,2.036763e-006
2.876000e+000,5.058050e-006
2.877000e+000,-2.327317e-006
2.878000e+000,-6.355698e-006
2.879000e+000,-4.341509e-006
2.880000e+000,9.757827e-006
2.881000e+000,4.386653e-006
2.882000e+000,3.582720e-007
2.883000e+000,-3.334415e-006
2.884000e+000,-4.677207e-006
2.885000e+000,-6.355698e-006
2.886000e+000,3.582720e-007
2.887000e+000,-6.355698e-006
2.888000e+000,-1.105548e-005
2.889000e+000,-3.670113e-006
2.890000e+000,-5.012905e-006
2.891000e+000,-1.991619e-006
2.892000e+000,-2.327317e-006
2.893000e+000,-3.131279e-007
2.894000e+000,-7.362792e-006
2.895000e+000,-1.172688e-005
2.896000e+000,1.029668e-006
2.897000e+000,1.848599e-005
2.898000e+000,1.714319e-005
2.899000e+000,6.400842e-006
2.900000e+000,-9.712687e-006
2.901000e+000,-1.474816e-005
2.902000e+000,-1.105548e-005
2.903000e+000,-8.705592e-006
2.904000e+000,-3.334415e-006
2.905000e+000,1.110062e-005
2.906000e+000,2.922834e-005
2.907000e+000,1.546470e-005
2.908000e+000,-7.027094e-006
2.909000e+000,-8.369887e-006
2.910000e+000,-2.327317e-006
2.911000e+000,4.722351e-006
2.912000e+000,1.412191e-005
2.913000e+000,1.714319e-005
2.914000e+000,1.110062e-005
2.915000e+000,-3.670113e-006
2.916000e+000,-8.369887e-006
2.917000e+000,-1.508386e-005
2.918000e+000,-1.991619e-006
2.919000e+000,-2.998713e-006
2.920000e+000,-6.020000e-006
2.921000e+000,1.042922e-005
2.922000e+000,9.757827e-006
2.923000e+000,1.029668e-006
2.924000e+000,-6.488260e-007
2.925000e+000,-4.341509e-006
2.926000e+000,-1.508386e-005
2.927000e+000,-7.013841e-005
2.928000e+000,-4.865371e-005
2.929000e+000,-1.991619e-006
2.930000e+000,4.500617e-005
2.931000e+000,6.816936e-005
2.932000e+000,4.937025e-005
2.933000e+000,4.332768e-005
2.934000e+000,3.124253e-005
2.935000e+000,-5.684302e-006
2.936000e+000,-2.079073e-005
2.937000e+000,-1.676235e-005
2.938000e+000,-2.549051e-005
2.939000e+000,-2.448342e-005
2.940000e+000,-7.698490e-006
2.941000e+000,-8.705592e-006
2.942000e+000,-1.991619e-006
2.943000e+000,1.210772e-005
2.944000e+000,7.072242e-006
2.945000e+000,1.009353e-005
2.946000e+000,-5.684302e-006
2.947000e+000,-1.306967e-005
2.948000e+000,-1.575526e-005
2.949000e+000,-1.306967e-005
2.950000e+000,-1.441246e-005
2.951000e+000,-1.172688e-005
2.952000e+000,-4.341509e-006
2.953000e+000,-5.684302e-006
2.954000e+000,1.029668e-006
2.955000e+000,2.654275e-005
2.956000e+000,7.407940e-006
2.957000e+000,-1.407676e-005
2.958000e+000,-1.105548e-005
2.959000e+000,1.029668e-006
2.960000e+000,1.714319e-005
2.961000e+000,1.445761e-005
2.962000e+000,1.512900e-005
2.963000e+000,1.177202e-005
2.964000e+000,7.743638e-006
2.965000e+000,-2.998713e-006
2.966000e+000,-5.012905e-006
2.967000e+000,-2.663015e-006
2.968000e+000,-6.355698e-006
2.969000e+000,-7.027094e-006
2.970000e+000,-6.691396e-006
2.971000e+000,-5.012905e-006
2.972000e+000,-8.369887e-006
2.973000e+000,-9.041290e-006
2.974000e+000,-1.105548e-005
2.975000e+000,-3.670113e-006
2.976000e+000,-1.655920e-006
2.977000e+000,-1.320222e-006
2.978000e+000,1.365366e-006
2.979000e+000,1.512900e-005
2.980000e+000,2.855694e-005
2.981000e+000,2.452856e-005
2.982000e+000,6.400842e-006
2.983000e+000,-2.327317e-006
2.984000e+000,-1.038408e-005
2.985000e+000,-1.038408e-005
2.986000e+000,3.043857e-006
2.987000e+000,-3.131279e-007
2.988000e+000,-5.348604e-006
2.989000e+000,-4.341509e-006
2.990000e+000,-3.334415e-006
2.991000e+000,-6.488260e-007
2.992000e+000,-3.334415e-006
2.993000e+000,-7.027094e-006
2.994000e+000,-2.246922e-005
2.995000e+000,-1.575526e-005
2.996000e+000,3.582720e-007
2.997000e+000,1.042922e-005
2.998000e+000,1.177202e-005
2.999000e+000,2.519996e-005
3.000000e+000,4.937025e-005
3.001000e+000,1.781459e-005
3.002000e+000,-7.698490e-006
3.003000e+000,-1.374106e-005
3.004000e+000,-1.642666e-005
3.005000e+000,-7.698490e-006
3.006000e+000,-6.355698e-006
3.007000e+000,-9.712687e-006
3.008000e+000,-1.374106e-005
3.009000e+000,-4.677207e-006
3.010000e+000,2.036763e-006
3.011000e+000,3.582720e-007
3.012000e+000,6.939702e-007
3.013000e+000,-6.488260e-007
3.014000e+000,4.386653e-006
3.015000e+000,1.042922e-005
3.016000e+000,-2.998713e-006
3.017000e+000,-5.012905e-006
3.018000e+000,1.244342e-005
3.019000e+000,1.244342e-005
3.020000e+000,1.177202e-005
3.021000e+000,6.400842e-006
3.022000e+000,-4.341509e-006
3.023000e+000,-1.575526e-005
3.024000e+000,-1.676235e-005
3.025000e+000,-1.642666e-005
3.026000e+000,-1.105548e-005
3.027000e+000,-2.998713e-006
3.028000e+000,7.072242e-006
3.029000e+000,2.251437e-005
3.030000e+000,1.512900e-005
3.031000e+000,-5.348604e-006
3.032000e+000,-1.776945e-005
3.033000e+000,-4.341509e-006
3.034000e+000,2.372461e-006
3.035000e+000,3.043857e-006
3.036000e+000,-4.341509e-006
3.037000e+000,-2.327317e-006
3.038000e+000,-5.684302e-006
3.039000e+000,-5.603907e-005
3.040000e+000,-3.690426e-005
3.041000e+000,1.982878e-005
3.042000e+000,5.474142e-005
3.043000e+000,4.869885e-005
3.044000e+000,4.131349e-005
3.045000e+000,3.023543e-005
3.046000e+000,3.582720e-007
3.047000e+000,-2.998713e-006
3.048000e+000,-3.131279e-007
3.049000e+000,-1.004838e-005
3.050000e+000,-2.448342e-005
3.051000e+000,-2.683331e-005
3.052000e+000,-2.515482e-005
3.053000e+000,-9.712687e-006
3.054000e+000,6.939702e-007
3.055000e+000,3.582720e-007
3.056000e+000,4.722351e-006
3.057000e+000,1.714319e-005
3.058000e+000,1.143632e-005
3.059000e+000,8.415034e-006
3.060000e+000,5.058050e-006
3.061000e+000,1.143632e-005
3.062000e+000,1.378621e-005
3.063000e+000,-9.041290e-006
3.064000e+000,-7.027094e-006
3.065000e+000,-8.369887e-006
3.066000e+000,-1.776945e-005
3.067000e+000,-1.709805e-005
3.068000e+000,-2.112643e-005
3.069000e+000,-2.663015e-006
3.070000e+000,1.042922e-005
3.071000e+000,7.072242e-006
3.072000e+000,-9.845241e-007
3.073000e+000,2.372461e-006
3.074000e+000,-6.488260e-007
3.075000e+000,2.257025e-008
3.076000e+000,5.729446e-006
3.077000e+000,2.708159e-006
3.078000e+000,-9.845241e-007
3.079000e+000,-4.005811e-006
3.080000e+000,-5.012905e-006
3.081000e+000,-4.341509e-006
3.082000e+000,4.386653e-006
3.083000e+000,2.372461e-006
3.084000e+000,8.415034e-006
3.085000e+000,3.715257e-006
3.086000e+000,1.042922e-005
3.087000e+000,1.701065e-006
3.088000e+000,-3.131279e-007
3.089000e+000,-4.341509e-006
3.090000e+000,2.372461e-006
3.091000e+000,3.582720e-007
3.092000e+000,1.029668e-006
3.093000e+000,-6.355698e-006
3.094000e+000,-9.712687e-006
3.095000e+000,-1.978364e-005
3.096000e+000,-2.314063e-005
3.097000e+000,-1.991619e-006
3.098000e+000,7.072242e-006
3.099000e+000,1.714319e-005
3.100000e+000,1.915739e-005
3.101000e+000,9.086431e-006
3.102000e+000,8.415034e-006
3.103000e+000,3.043857e-006
3.104000e+000,5.729446e-006
3.105000e+000,8.415034e-006
3.106000e+000,5.393748e-006
3.107000e+000,-3.131279e-007
3.108000e+000,-9.845241e-007
3.109000e+000,1.029668e-006
3.110000e+000,-7.698490e-006
3.111000e+000,-6.355698e-006
3.112000e+000,-4.341509e-006
3.113000e+000,-4.341509e-006
3.114000e+000,-4.341509e-006
3.115000e+000,-2.327317e-006
3.116000e+000,-7.027094e-006
3.117000e+000,-1.239827e-005
3.118000e+000,-1.038408e-005
3.119000e+000,-1.239827e-005
3.120000e+000,-1.320222e-006
3.121000e+000,-4.341509e-006
3.122000e+000,-1.139118e-005
3.123000e+000,1.701065e-006
3.124000e+000,1.177202e-005
3.125000e+000,1.076493e-005
3.126000e+000,1.143632e-005
3.127000e+000,2.587136e-005
3.128000e+000,1.445761e-005
3.129000e+000,6.939702e-007
3.130000e+000,1.029668e-006
3.131000e+000,-1.655920e-006
3.132000e+000,-4.341509e-006
3.133000e+000,2.372461e-006
3.134000e+000,6.939702e-007
3.135000e+000,7.072242e-006
3.136000e+000,1.076493e-005
3.137000e+000,6.065144e-006
3.138000e+000,-2.998713e-006
3.139000e+000,-1.172688e-005
3.140000e+000,-1.239827e-005
3.141000e+000,3.582720e-007
3.142000e+000,-4.341509e-006
3.143000e+000,-5.684302e-006
3.144000e+000,-6.355698e-006
3.145000e+000,-1.541955e-005
3.146000e+000,-4.341509e-006
3.147000e+000,1.701065e-006
3.148000e+000,1.311481e-005
3.149000e+000,2.486426e-005
3.150000e+000,1.580040e-005
3.151000e+000,2.372461e-006
3.152000e+000,-5.684302e-006
3.153000e+000,-1.676235e-005
3.154000e+000,-8.369887e-006
3.155000e+000,-9.845241e-007
3.156000e+000,5.058050e-006
3.157000e+000,9.757827e-006
3.158000e+000,3.379555e-006
3.159000e+000,-3.670113e-006
3.160000e+000,-4.341509e-006
3.161000e+000,-9.845241e-007
3.162000e+000,1.701065e-006
3.163000e+000,3.043857e-006
3.164000e+000,1.029668e-006
3.165000e+000,-2.998713e-006
3.166000e+000,3.582720e-007
3.167000e+000,-2.998713e-006
3.168000e+000,-5.012905e-006
3.169000e+000,-1.172688e-005
3.170000e+000,-1.743375e-005
3.171000e+000,-1.642666e-005
3.172000e+000,-1.172688e-005
3.173000e+000,-1.655920e-006
3.174000e+000,7.072242e-006
3.175000e+000,1.714319e-005
3.176000e+000,2.251437e-005
3.177000e+000,6.400842e-006
3.178000e+000,6.065144e-006
3.179000e+000,7.743638e-006
3.180000e+000,3.043857e-006
3.181000e+000,-8.705592e-006
3.182000e+000,-2.381202e-005
3.183000e+000,-1.340537e-005
3.184000e+000,1.546470e-005
3.185000e+000,2.251437e-005
3.186000e+000,1.311481e-005
3.187000e+000,3.582720e-007
3.188000e+000,5.393748e-006
3.189000e+000,6.400842e-006
3.190000e+000,-6.020000e-006
3.191000e+000,-1.776945e-005
3.192000e+000,-1.810515e-005
3.193000e+000,-8.705592e-006
3.194000e+000,-2.179783e-005
3.195000e+000,-5.402488e-005
3.196000e+000,-1.676235e-005
3.197000e+000,2.385716e-005
3.198000e+000,4.668466e-005
3.199000e+000,4.802746e-005
3.200000e+000,2.989974e-005
3.201000e+000,2.251437e-005
3.202000e+000,4.722351e-006
3.203000e+000,-5.684302e-006
3.204000e+000,-1.508386e-005
3.205000e+000,-1.655920e-006
3.206000e+000,-3.131279e-007
3.207000e+000,-9.041290e-006
3.208000e+000,-2.045503e-005
3.209000e+000,-2.851180e-005
3.210000e+000,-3.455437e-005
3.211000e+000,-4.731091e-005
3.212000e+000,-2.146213e-005
3.213000e+000,7.743638e-006
3.214000e+000,2.385716e-005
3.215000e+000,3.594231e-005
3.216000e+000,3.057113e-005
3.217000e+000,2.587136e-005
3.218000e+000,2.452856e-005
3.219000e+000,2.822124e-005
3.220000e+000,1.177202e-005
3.221000e+000,3.582720e-007
3.222000e+000,-6.020000e-006
3.223000e+000,-8.034189e-006
3.224000e+000,-1.038408e-005
3.225000e+000,-1.306967e-005
3.226000e+000,-1.306967e-005
3.227000e+000,-1.575526e-005
3.228000e+000,-1.172688e-005
3.229000e+000,-7.362792e-006
3.230000e+000,-9.712687e-006
3.231000e+000,2.257025e-008
3.232000e+000,-2.998713e-006
3.233000e+000,-4.341509e-006
3.234000e+000,-2.327317e-006
3.235000e+000,-1.655920e-006
3.236000e+000,-4.341509e-006
3.237000e+000,2.036763e-006
3.238000e+000,-4.341509e-006
3.239000e+000,-3.334415e-006
3.240000e+000,-1.655920e-006
3.241000e+000,6.736540e-006
3.242000e+000,5.393748e-006
3.243000e+000,3.715257e-006
3.244000e+000,1.177202e-005
3.245000e+000,6.065144e-006
3.246000e+000,6.939702e-007
3.247000e+000,-3.131279e-007
3.248000e+000,-1.655920e-006
3.249000e+000,4.722351e-006
3.250000e+000,1.244342e-005
3.251000e+000,1.848599e-005
3.252000e+000,2.251437e-005
3.253000e+000,1.781459e-005
3.254000e+000,-1.105548e-005
3.255000e+000,-1.105548e-005
3.256000e+000,-4.005811e-006
3.257000e+000,-9.845241e-007
3.258000e+000,-9.845241e-007
3.259000e+000,3.582720e-007
3.260000e+000,3.043857e-006
3.261000e+000,2.036763e-006
3.262000e+000,-4.677207e-006
3.263000e+000,-6.355698e-006
3.264000e+000,7.072242e-006
3.265000e+000,1.042922e-005
3.266000e+000,-3.131279e-007
3.267000e+000,-3.670113e-006
3.268000e+000,-1.374106e-005
3.269000e+000,-2.582621e-005
3.270000e+000,-3.455437e-005
3.271000e+000,-2.784040e-005
3.272000e+000,-1.239827e-005
3.273000e+000,1.029668e-006
3.274000e+000,3.258533e-005
3.275000e+000,3.896360e-005
3.276000e+000,4.064209e-005
3.277000e+000,2.318577e-005
3.278000e+000,-4.341509e-006
3.279000e+000,-1.655920e-006
3.280000e+000,-1.004838e-005
3.281000e+000,-2.918319e-005
3.282000e+000,-3.119739e-005
3.283000e+000,-7.362792e-006
3.284000e+000,7.743638e-006
3.285000e+000,-4.341509e-006
3.286000e+000,6.065144e-006
3.287000e+000,1.177202e-005
3.288000e+000,1.647180e-005
3.289000e+000,1.445761e-005
3.290000e+000,8.415034e-006
3.291000e+000,9.757827e-006
3.292000e+000,-7.362792e-006
3.293000e+000,-1.575526e-005
3.294000e+000,-9.041290e-006
3.295000e+000,-4.341509e-006
3.296000e+000,-7.027094e-006
3.297000e+000,-3.334415e-006
3.298000e+000,-2.327317e-006
3.299000e+000,-4.677207e-006
3.300000e+000,-8.369887e-006
3.301000e+000,-1.038408e-005
3.302000e+000,-5.684302e-006
3.303000e+000,2.036763e-006
3.304000e+000,-3.131279e-007
3.305000e+000,6.400842e-006
3.306000e+000,5.729446e-006
3.307000e+000,2.372461e-006
3.308000e+000,-5.684302e-006
3.309000e+000,-3.334415e-006
3.310000e+000,3.582720e-007
3.311000e+000,-7.027094e-006
3.312000e+000,-5.684302e-006
3.313000e+000,-2.998713e-006
3.314000e+000,-9.845241e-007
3.315000e+000,-4.999650e-005
3.316000e+000,-4.361823e-005
3.317000e+000,1.714319e-005
3.318000e+000,5.440573e-005
3.319000e+000,5.138444e-005
3.320000e+000,2.419286e-005
3.321000e+000,2.587136e-005
3.322000e+000,1.076493e-005
3.323000e+000,-9.041290e-006
3.324000e+000,-2.045503e-005
3.325000e+000,-1.273397e-005
3.326000e+000,-1.655920e-006
3.327000e+000,6.736540e-006
3.328000e+000,1.210772e-005
3.329000e+000,6.065144e-006
3.330000e+000,-7.027094e-006
3.331000e+000,-1.004838e-005
3.332000e+000,-2.045503e-005
3.333000e+000,-2.616191e-005
3.334000e+000,-2.146213e-005
3.335000e+000,-5.684302e-006
3.336000e+000,1.982878e-005
3.337000e+000,4.198488e-005
3.338000e+000,3.459952e-005
3.339000e+000,6.400842e-006
3.340000e+000,2.372461e-006
3.341000e+000,-1.655920e-006
3.342000e+000,5.729446e-006
3.343000e+000,8.415034e-006
3.344000e+000,-7.362792e-006
3.345000e+000,-2.448342e-005
3.346000e+000,-2.246922e-005
3.347000e+000,-6.355698e-006
3.348000e+000,1.110062e-005
3.349000e+000,1.177202e-005
3.350000e+000,9.086431e-006
3.351000e+000,9.757827e-006
3.352000e+000,6.400842e-006
3.353000e+000,-1.991619e-006
3.354000e+000,-9.712687e-006
3.355000e+000,-1.508386e-005
3.356000e+000,-1.374106e-005
3.357000e+000,-1.273397e-005
3.358000e+000,-1.038408e-005
3.359000e+000,-1.474816e-005
3.360000e+000,-4.677207e-006
3.361000e+000,1.110062e-005
3.362000e+000,3.043857e-006
3.363000e+000,-9.712687e-006
3.364000e+000,-1.374106e-005
3.365000e+000,2.372461e-006
3.366000e+000,2.285007e-005
3.367000e+000,1.714319e-005
3.368000e+000,-4.005811e-006
3.369000e+000,5.729446e-006
3.370000e+000,2.620705e-005
3.371000e+000,6.065144e-006
3.372000e+000,-2.998713e-006
3.373000e+000,5.058050e-006
3.374000e+000,9.086431e-006
3.375000e+000,-3.131279e-007
3.376000e+000,-5.684302e-006
3.377000e+000,4.386653e-006
3.378000e+000,-9.845241e-007
3.379000e+000,-8.369887e-006
3.380000e+000,-1.004838e-005
3.381000e+000,-9.712687e-006
3.382000e+000,-7.698490e-006
3.383000e+000,-2.663015e-006
3.384000e+000,2.708159e-006
3.385000e+000,4.722351e-006
3.386000e+000,5.058050e-006
3.387000e+000,3.582720e-007
3.388000e+000,-1.991619e-006
3.389000e+000,-9.041290e-006
3.390000e+000,-7.027094e-006
3.391000e+000,-5.684302e-006
3.392000e+000,-7.027094e-006
3.393000e+000,-3.131279e-007
3.394000e+000,5.058050e-006
3.395000e+000,3.043857e-006
3.396000e+000,-9.845241e-007
3.397000e+000,-5.684302e-006
3.398000e+000,-6.355698e-006
3.399000e+000,-3.131279e-007
3.400000e+000,-4.677207e-006
3.401000e+000,-6.020000e-006
3.402000e+000,3.043857e-006
3.403000e+000,4.722351e-006
3.404000e+000,1.029668e-006
3.405000e+000,-1.642666e-005
3.406000e+000,-1.810515e-005
3.407000e+000,-3.131279e-007
3.408000e+000,5.058050e-006
3.409000e+000,1.311481e-005
3.410000e+000,5.058050e-006
3.411000e+000,-1.655920e-006
3.412000e+000,1.714319e-005
3.413000e+000,-6.355698e-006
3.414000e+000,-1.655920e-006
3.415000e+000,6.400842e-006
3.416000e+000,2.352146e-005
3.417000e+000,3.459952e-005
3.418000e+000,3.560661e-005
3.419000e+000,2.855694e-005
3.420000e+000,6.400842e-006
3.421000e+000,-4.341509e-006
3.422000e+000,-5.684302e-006
3.423000e+000,-4.341509e-006
3.424000e+000,-1.004838e-005
3.425000e+000,-8.705592e-006
3.426000e+000,-7.027094e-006
3.427000e+000,-1.844085e-005
3.428000e+000,-7.282399e-005
3.429000e+000,-4.663952e-005
3.430000e+000,1.009353e-005
3.431000e+000,4.500617e-005
3.432000e+000,5.608422e-005
3.433000e+000,3.997069e-005
3.434000e+000,1.848599e-005
3.435000e+000,-7.027094e-006
3.436000e+000,-1.944794e-005
3.437000e+000,-1.004838e-005
3.438000e+000,-9.712687e-006
3.439000e+000,-1.139118e-005
3.440000e+000,-1.306967e-005
3.441000e+000,-1.911224e-005
3.442000e+000,-1.105548e-005
3.443000e+000,-9.712687e-006
3.444000e+000,-1.105548e-005
3.445000e+000,-1.991619e-006
3.446000e+000,4.386653e-006
3.447000e+000,1.512900e-005
3.448000e+000,1.009353e-005
3.449000e+000,1.365366e-006
3.450000e+000,3.043857e-006
3.451000e+000,1.546470e-005
3.452000e+000,1.110062e-005
3.453000e+000,8.750733e-006
3.454000e+000,4.386653e-006
3.455000e+000,-2.327317e-006
3.456000e+000,-3.131279e-007
3.457000e+000,5.729446e-006
3.458000e+000,-6.691396e-006
3.459000e+000,-2.213352e-005
3.460000e+000,-2.213352e-005
3.461000e+000,-1.374106e-005
3.462000e+000,-9.041290e-006
3.463000e+000,-2.663015e-006
3.464000e+000,4.386653e-006
3.465000e+000,2.083588e-005
3.466000e+000,1.479331e-005
3.467000e+000,1.412191e-005
3.468000e+000,-9.845241e-007
3.469000e+000,1.701065e-006
3.470000e+000,-1.655920e-006
3.471000e+000,-1.071978e-005
3.472000e+000,-1.004838e-005
3.473000e+000,-5.684302e-006
3.474000e+000,6.400842e-006
3.475000e+000,3.715257e-006
3.476000e+000,-1.239827e-005
3.477000e+000,-1.911224e-005
3.478000e+000,-1.239827e-005
3.479000e+000,3.582720e-007
3.480000e+000,4.050955e-006
3.481000e+000,-3.131279e-007
3.482000e+000,1.029668e-006
3.483000e+000,3.715257e-006
3.484000e+000,1.277911e-005
3.485000e+000,7.743638e-006
3.486000e+000,-1.320222e-006
3.487000e+000,-7.698490e-006
3.488000e+000,-1.991619e-006
3.489000e+000,-7.698490e-006
3.490000e+000,-6.355698e-006
3.491000e+000,1.029668e-006
3.492000e+000,1.512900e-005
3.493000e+000,1.546470e-005
3.494000e+000,2.184297e-005
3.495000e+000,2.372461e-006
3.496000e+000,-1.206257e-005
3.497000e+000,-7.698490e-006
3.498000e+000,-1.776945e-005
3.499000e+000,-2.381202e-005
3.500000e+000,-1.105548e-005
3.501000e+000,2.352146e-005
3.502000e+000,3.258533e-005
3.503000e+000,2.050018e-005
3.504000e+000,1.378621e-005
3.505000e+000,2.036763e-006
3.506000e+000,-2.998713e-006
3.507000e+000,-1.508386e-005
3.508000e+000,-1.508386e-005
3.509000e+000,3.715257e-006
3.510000e+000,1.029668e-006
3.511000e+000,1.512900e-005
3.512000e+000,1.647180e-005
3.513000e+000,1.311481e-005
3.514000e+000,2.372461e-006
3.515000e+000,-1.441246e-005
3.516000e+000,-2.112643e-005
3.517000e+000,-1.071978e-005
3.518000e+000,-2.327317e-006
3.519000e+000,-1.655920e-006
3.520000e+000,-4.341509e-006
3.521000e+000,-9.845241e-007
3.522000e+000,1.848599e-005
3.523000e+000,9.422129e-006
3.524000e+000,-3.670113e-006
3.525000e+000,-1.139118e-005
3.526000e+000,-1.911224e-005
3.527000e+000,-5.348604e-006
3.528000e+000,2.372461e-006
3.529000e+000,1.177202e-005
3.530000e+000,8.079336e-006
3.531000e+000,-7.027094e-006
3.532000e+000,-5.133930e-005
3.533000e+000,-2.079073e-005
3.534000e+000,1.848599e-005
3.535000e+000,3.862790e-005
3.536000e+000,3.057113e-005
3.537000e+000,1.512900e-005
3.538000e+000,2.788555e-005
3.539000e+000,1.042922e-005
3.540000e+000,-9.041290e-006
3.541000e+000,-1.239827e-005
3.542000e+000,-2.851180e-005
3.543000e+000,-2.985460e-005
3.544000e+000,-1.172688e-005
3.545000e+000,-1.655920e-006
3.546000e+000,3.715257e-006
3.547000e+000,5.058050e-006
3.548000e+000,2.620705e-005
3.549000e+000,2.519996e-005
3.550000e+000,1.110062e-005
3.551000e+000,-9.712687e-006
3.552000e+000,-1.239827e-005
3.553000e+000,-9.041290e-006
3.554000e+000,1.029668e-006
3.555000e+000,5.058050e-006
3.556000e+000,-9.041290e-006
3.557000e+000,-2.549051e-005
3.558000e+000,-2.179783e-005
3.559000e+000,-2.314063e-005
3.560000e+000,-1.776945e-005
3.561000e+000,-3.670113e-006
3.562000e+000,1.143632e-005
3.563000e+000,3.057113e-005
3.564000e+000,3.392812e-005
3.565000e+000,2.989974e-005
3.566000e+000,3.594231e-005
3.567000e+000,8.415034e-006
3.568000e+000,-1.105548e-005
3.569000e+000,-1.911224e-005
3.570000e+000,-2.045503e-005
3.571000e+000,-2.079073e-005
3.572000e+000,-1.004838e-005
3.573000e+000,-3.131279e-007
3.574000e+000,5.058050e-006
3.575000e+000,1.177202e-005
3.576000e+000,1.781459e-005
3.577000e+000,1.076493e-005
3.578000e+000,1.029668e-006
3.579000e+000,-7.027094e-006
3.580000e+000,-1.575526e-005
3.581000e+000,-5.012905e-006
3.582000e+000,-2.998713e-006
3.583000e+000,3.582720e-007
3.584000e+000,-1.655920e-006
3.585000e+000,-4.341509e-006
3.586000e+000,2.036763e-006
3.587000e+000,3.715257e-006
3.588000e+000,-1.991619e-006
3.589000e+000,-4.677207e-006
3.590000e+000,-5.012905e-006
3.591000e+000,-4.341509e-006
3.592000e+000,-7.362792e-006
3.593000e+000,-1.340537e-005
3.594000e+000,-1.655920e-006
3.595000e+000,1.701065e-006
3.596000e+000,5.058050e-006
3.597000e+000,3.379555e-006
3.598000e+000,4.722351e-006
3.599000e+000,7.743638e-006
3.600000e+000,4.386653e-006
3.601000e+000,5.729446e-006
3.602000e+000,7.072242e-006
3.603000e+000,7.407940e-006
3.604000e+000,2.372461e-006
3.605000e+000,6.065144e-006
3.606000e+000,1.365366e-006
3.607000e+000,-9.712687e-006
3.608000e+000,-1.306967e-005
3.609000e+000,3.582720e-007
3.610000e+000,1.613610e-005
3.611000e+000,-2.998713e-006
3.612000e+000,6.065144e-006
3.613000e+000,8.415034e-006
3.614000e+000,-2.998713e-006
3.615000e+000,-9.712687e-006
3.616000e+000,-1.139118e-005
3.617000e+000,-6.355698e-006
3.618000e+000,-6.355698e-006
3.619000e+000,-1.978364e-005
3.620000e+000,-5.348604e-006
3.621000e+000,1.177202e-005
3.622000e+000,1.029668e-006
3.623000e+000,-3.131279e-007
3.624000e+000,5.058050e-006
3.625000e+000,8.750733e-006
3.626000e+000,6.065144e-006
3.627000e+000,1.701065e-006
3.628000e+000,2.150728e-005
3.629000e+000,2.956404e-005
3.630000e+000,-4.731091e-005
3.631000e+000,-3.723996e-005
3.632000e+000,8.415034e-006
3.633000e+000,3.392812e-005
3.634000e+000,3.997069e-005
3.635000e+000,3.661371e-005
3.636000e+000,2.217867e-005
3.637000e+000,-9.712687e-006
3.638000e+000,-2.515482e-005
3.639000e+000,-1.776945e-005
3.640000e+000,-1.105548e-005
3.641000e+000,-2.998713e-006
3.642000e+000,2.257025e-008
3.643000e+000,-3.670113e-006
3.644000e+000,-6.020000e-006
3.645000e+000,-7.362792e-006
3.646000e+000,-1.508386e-005
3.647000e+000,-1.844085e-005
3.648000e+000,-1.575526e-005
3.649000e+000,-8.034189e-006
3.650000e+000,-9.845241e-007
3.651000e+000,3.715257e-006
3.652000e+000,-1.655920e-006
3.653000e+000,4.386653e-006
3.654000e+000,3.582720e-007
3.655000e+000,-2.112643e-005
3.656000e+000,-3.388297e-005
3.657000e+000,-2.045503e-005
3.658000e+000,2.372461e-006
3.659000e+000,1.580040e-005
3.660000e+000,1.781459e-005
3.661000e+000,3.795650e-005
3.662000e+000,3.862790e-005
3.663000e+000,1.042922e-005
3.664000e+000,1.311481e-005
3.665000e+000,1.982878e-005
3.666000e+000,1.512900e-005
3.667000e+000,-9.845241e-007
3.668000e+000,-1.655920e-006
3.669000e+000,-9.845241e-007
3.670000e+000,5.058050e-006
3.671000e+000,6.939702e-007
3.672000e+000,-9.712687e-006
3.673000e+000,-9.041290e-006
3.674000e+000,-1.105548e-005
3.675000e+000,-1.508386e-005
3.676000e+000,-1.575526e-005
3.677000e+000,-1.340537e-005
3.678000e+000,2.372461e-006
3.679000e+000,5.729446e-006
3.680000e+000,6.939702e-007
3.681000e+000,-2.327317e-006
3.682000e+000,6.939702e-007
3.683000e+000,3.582720e-007
3.684000e+000,-1.105548e-005
3.685000e+000,-1.776945e-005
3.686000e+000,-1.541955e-005
3.687000e+000,-1.541955e-005
3.688000e+000,-3.670113e-006
3.689000e+000,2.036763e-006
3.690000e+000,2.150728e-005
3.691000e+000,2.519996e-005
3.692000e+000,1.714319e-005
3.693000e+000,1.781459e-005
3.694000e+000,8.415034e-006
3.695000e+000,-6.488260e-007
3.696000e+000,-6.020000e-006
3.697000e+000,-8.034189e-006
3.698000e+000,-6.020000e-006
3.699000e+000,-1.991619e-006
3.700000e+000,-3.131279e-007
3.701000e+000,-5.348604e-006
3.702000e+000,9.757827e-006
3.703000e+000,7.407940e-006
3.704000e+000,-3.670113e-006
3.705000e+000,-6.355698e-006
3.706000e+000,-2.663015e-006
3.707000e+000,-1.374106e-005
3.708000e+000,-2.079073e-005
3.709000e+000,-2.179783e-005
3.710000e+000,-1.306967e-005
3.711000e+000,-3.131279e-007
3.712000e+000,6.400842e-006
3.713000e+000,1.445761e-005
3.714000e+000,1.982878e-005
3.715000e+000,2.385716e-005
3.716000e+000,2.519996e-005
3.717000e+000,9.086431e-006
3.718000e+000,-9.712687e-006
3.719000e+000,-5.684302e-006
3.720000e+000,-1.105548e-005
3.721000e+000,-5.684302e-006
3.722000e+000,1.848599e-005
3.723000e+000,2.519996e-005
3.724000e+000,5.058050e-006
3.725000e+000,-1.374106e-005
3.726000e+000,-1.105548e-005
3.727000e+000,-2.663015e-006
3.728000e+000,-7.027094e-006
3.729000e+000,-4.341509e-006
3.730000e+000,3.582720e-007
3.731000e+000,-5.012905e-006
3.732000e+000,1.365366e-006
3.733000e+000,-1.655920e-006
3.734000e+000,-1.105548e-005
3.735000e+000,2.257025e-008
3.736000e+000,7.072242e-006
3.737000e+000,5.729446e-006
3.738000e+000,8.415034e-006
3.739000e+000,3.043857e-006
3.740000e+000,8.415034e-006
3.741000e+000,2.372461e-006
3.742000e+000,3.582720e-007
3.743000e+000,-2.327317e-006
3.744000e+000,-4.341509e-006
3.745000e+000,-7.027094e-006
3.746000e+000,-1.340537e-005
3.747000e+000,-1.575526e-005
3.748000e+000,-1.508386e-005
3.749000e+000,-5.684302e-006
3.750000e+000,-2.985460e-005
3.751000e+000,-2.716900e-005
3.752000e+000,1.647180e-005
3.753000e+000,4.433477e-005
3.754000e+000,7.152635e-005
3.755000e+000,6.078400e-005
3.756000e+000,2.922834e-005
3.757000e+000,-4.341509e-006
3.758000e+000,-3.153309e-005
3.759000e+000,-1.642666e-005
3.760000e+000,-1.071978e-005
3.761000e+000,-2.045503e-005
3.762000e+000,-2.448342e-005
3.763000e+000,-1.944794e-005
3.764000e+000,6.400842e-006
3.765000e+000,1.029668e-006
3.766000e+000,-2.716900e-005
3.767000e+000,-1.038408e-005
3.768000e+000,2.372461e-006
3.769000e+000,1.311481e-005
3.770000e+000,1.848599e-005
3.771000e+000,3.057113e-005
3.772000e+000,1.982878e-005
3.773000e+000,1.009353e-005
3.774000e+000,-3.131279e-007
3.775000e+000,-5.348604e-006
3.776000e+000,-6.355698e-006
3.777000e+000,-1.239827e-005
3.778000e+000,-6.020000e-006
3.779000e+000,-3.131279e-007
3.780000e+000,-2.998713e-006
3.781000e+000,-2.327317e-006
3.782000e+000,-1.655920e-006
3.783000e+000,-9.712687e-006
3.784000e+000,-1.642666e-005
3.785000e+000,-1.642666e-005
3.786000e+000,-9.712687e-006
3.787000e+000,-2.663015e-006
3.788000e+000,-5.684302e-006
3.789000e+000,-2.663015e-006
3.790000e+000,3.043857e-006
3.791000e+000,-9.845241e-007
3.792000e+000,-6.691396e-006
3.793000e+000,-1.172688e-005
3.794000e+000,9.757827e-006
3.795000e+000,-2.998713e-006
3.796000e+000,-2.663015e-006
3.797000e+000,3.043857e-006
3.798000e+000,1.244342e-005
3.799000e+000,1.714319e-005
3.800000e+000,2.184297e-005
3.801000e+000,2.117158e-005
3.802000e+000,1.244342e-005
3.803000e+000,-2.327317e-006
3.804000e+000,-9.712687e-006
3.805000e+000,-1.374106e-005
3.806000e+000,-8.705592e-006
3.807000e+000,4.386653e-006
3.808000e+000,1.029668e-006
3.809000e+000,-2.998713e-006
3.810000e+000,-4.341509e-006
3.811000e+000,-1.655920e-006
3.812000e+000,-9.712687e-006
3.813000e+000,-9.376988e-006
3.814000e+000,-4.341509e-006
3.815000e+000,9.086431e-006
3.816000e+000,7.072242e-006
3.817000e+000,1.042922e-005
3.818000e+000,1.882169e-005
3.819000e+000,-9.845241e-007
3.820000e+000,-5.684302e-006
3.821000e+000,5.729446e-006
3.822000e+000,-3.131279e-007
3.823000e+000,-3.670113e-006
3.824000e+000,-3.670113e-006
3.825000e+000,3.043857e-006
3.826000e+000,1.029668e-006
3.827000e+000,-1.978364e-005
3.828000e+000,-5.684302e-006
3.829000e+000,-7.027094e-006
3.830000e+000,-8.369887e-006
3.831000e+000,9.086431e-006
3.832000e+000,2.117158e-005
3.833000e+000,3.594231e-005
3.834000e+000,2.050018e-005
3.835000e+000,1.580040e-005
3.836000e+000,1.580040e-005
3.837000e+000,7.743638e-006
3.838000e+000,-2.663015e-006
3.839000e+000,-1.105548e-005
3.840000e+000,-1.239827e-005
3.841000e+000,-1.642666e-005
3.842000e+000,-2.750470e-005
3.843000e+000,-2.179783e-005
3.844000e+000,-1.642666e-005
3.845000e+000,-9.041290e-006
3.846000e+000,-6.355698e-006
3.847000e+000,-7.027094e-006
3.848000e+000,-5.684302e-006
3.849000e+000,1.009353e-005
3.850000e+000,2.385716e-005
3.851000e+000,2.452856e-005
3.852000e+000,3.594231e-005
3.853000e+000,9.086431e-006
3.854000e+000,-3.334415e-006
3.855000e+000,-5.684302e-006
3.856000e+000,-6.488260e-007
3.857000e+000,7.072242e-006
3.858000e+000,-5.684302e-006
3.859000e+000,-1.105548e-005
3.860000e+000,-1.844085e-005
3.861000e+000,-2.616191e-005
3.862000e+000,-5.973176e-005
3.863000e+000,-3.656856e-005
3.864000e+000,9.086431e-006
3.865000e+000,4.634896e-005
3.866000e+000,4.668466e-005
3.867000e+000,2.855694e-005
3.868000e+000,2.654275e-005
3.869000e+000,5.058050e-006
3.870000e+000,-7.362792e-006
3.871000e+000,-6.020000e-006
3.872000e+000,-6.355698e-006
3.873000e+000,-9.041290e-006
3.874000e+000,-8.705592e-006
3.875000e+000,-1.139118e-005
3.876000e+000,-3.131279e-007
3.877000e+000,-7.027094e-006
3.878000e+000,-9.041290e-006
3.879000e+000,-5.012905e-006
3.880000e+000,-6.488260e-007
3.881000e+000,6.065144e-006
3.882000e+000,-1.273397e-005
3.883000e+000,-2.112643e-005
3.884000e+000,-5.012905e-006
3.885000e+000,4.722351e-006
3.886000e+000,8.415034e-006
3.887000e+000,1.110062e-005
3.888000e+000,8.415034e-006
3.889000e+000,8.750733e-006
3.890000e+000,4.050955e-006
3.891000e+000,6.400842e-006
3.892000e+000,4.722351e-006
3.893000e+000,9.086431e-006
3.894000e+000,2.083588e-005
3.895000e+000,7.407940e-006
3.896000e+000,1.029668e-006
3.897000e+000,-4.341509e-006
3.898000e+000,1.029668e-006
3.899000e+000,-1.991619e-006
3.900000e+000,2.257025e-008
3.901000e+000,3.043857e-006
3.902000e+000,-2.663015e-006
3.903000e+000,-1.239827e-005
3.904000e+000,-2.179783e-005
3.905000e+000,-2.448342e-005
3.906000e+000,-2.515482e-005
3.907000e+000,-1.340537e-005
3.908000e+000,1.747889e-005
3.909000e+000,2.989974e-005
3.910000e+000,1.580040e-005
3.911000e+000,1.714319e-005
3.912000e+000,1.580040e-005
3.913000e+000,4.722351e-006
3.914000e+000,-7.027094e-006
3.915000e+000,-2.327317e-006
3.916000e+000,-3.131279e-007
3.917000e+000,-6.355698e-006
3.918000e+000,-7.027094e-006
3.919000e+000,-1.374106e-005
3.920000e+000,-1.575526e-005
3.921000e+000,-5.684302e-006
3.922000e+000,7.743638e-006
3.923000e+000,-1.776945e-005
3.924000e+000,-9.712687e-006
3.925000e+000,8.415034e-006
3.926000e+000,9.086431e-006
3.927000e+000,1.029668e-006
3.928000e+000,1.701065e-006
3.929000e+000,1.445761e-005
3.930000e+000,6.400842e-006
3.931000e+000,-7.027094e-006
3.932000e+000,-6.488260e-007
3.933000e+000,-3.670113e-006
3.934000e+000,-9.712687e-006
3.935000e+000,2.036763e-006
3.936000e+000,1.009353e-005
3.937000e+000,2.251437e-005
3.938000e+000,7.743638e-006
3.939000e+000,-5.012905e-006
3.940000e+000,2.372461e-006
3.941000e+000,-3.670113e-006
3.942000e+000,-1.374106e-005
3.943000e+000,-1.407676e-005
3.944000e+000,-1.474816e-005
3.945000e+000,-1.676235e-005
3.946000e+000,-9.712687e-006
3.947000e+000,-7.698490e-006
3.948000e+000,3.043857e-006
3.949000e+000,2.855694e-005
3.950000e+000,3.594231e-005
3.951000e+000,1.546470e-005
3.952000e+000,-4.677207e-006
3.953000e+000,-7.698490e-006
3.954000e+000,-1.642666e-005
3.955000e+000,-1.508386e-005
3.956000e+000,3.582720e-007
3.957000e+000,-1.991619e-006
3.958000e+000,-2.481912e-005
3.959000e+000,-6.073885e-005
3.960000e+000,-9.712687e-006
3.961000e+000,2.754985e-005
3.962000e+000,5.407003e-005
3.963000e+000,4.634896e-005
3.964000e+000,4.232058e-005
3.965000e+000,3.661371e-005
3.966000e+000,1.445761e-005
3.967000e+000,2.385716e-005
3.968000e+000,4.722351e-006
3.969000e+000,-7.698490e-006
3.970000e+000,-1.709805e-005
3.971000e+000,-1.911224e-005
3.972000e+000,-2.314063e-005
3.973000e+000,-2.079073e-005
3.974000e+000,-1.508386e-005
3.975000e+000,-1.139118e-005
3.976000e+000,-8.369887e-006
3.977000e+000,-4.341509e-006
3.978000e+000,-3.334415e-006
3.979000e+000,-6.691396e-006
3.980000e+000,-5.348604e-006
3.981000e+000,3.043857e-006
3.982000e+000,3.715257e-006
3.983000e+000,-1.655920e-006
3.984000e+000,-2.327317e-006
3.985000e+000,-3.334415e-006
3.986000e+000,2.257025e-008
3.987000e+000,6.400842e-006
3.988000e+000,8.750733e-006
3.989000e+000,5.393748e-006
3.990000e+000,4.386653e-006
3.991000e+000,1.029668e-006
3.992000e+000,-9.845241e-007
3.993000e+000,-3.334415e-006
3.994000e+000,-1.655920e-006
3.995000e+000,-2.663015e-006
3.996000e+000,-2.327317e-006
3.997000e+000,-1.655920e-006
3.998000e+000,-2.998713e-006
3.999000e+000,-4.341509e-006
4.000000e+000,-1.407676e-005
4.001000e+000,-2.649761e-005
4.002000e+000,-2.246922e-005
4.003000e+000,5.729446e-006
4.004000e+000,1.580040e-005
4.005000e+000,-3.131279e-007
4.006000e+000,7.743638e-006
4.007000e+000,2.553566e-005
4.008000e+000,3.459952e-005
4.009000e+000,2.788555e-005
4.010000e+000,8.415034e-006
4.011000e+000,1.277911e-005
4.012000e+000,6.400842e-006
4.013000e+000,-5.684302e-006
4.014000e+000,-7.027094e-006
4.015000e+000,-4.341509e-006
4.016000e+000,-9.041290e-006
4.017000e+000,-1.004838e-005
4.018000e+000,-4.341509e-006
4.019000e+000,-3.670113e-006
4.020000e+000,-2.663015e-006
4.021000e+000,5.393748e-006
4.022000e+000,4.722351e-006
4.023000e+000,-9.845241e-007
4.024000e+000,3.582720e-007
4.025000e+000,-2.998713e-006
4.026000e+000,-3.334415e-006
4.027000e+000,-6.355698e-006
4.028000e+000,-3.670113e-006
4.029000e+000,-1.508386e-005
4.030000e+000,-1.844085e-005
4.031000e+000,-1.609096e-005
4.032000e+000,1.029668e-006
4.033000e+000,3.057113e-005
4.034000e+000,1.244342e-005
4.035000e+000,1.029668e-006
4.036000e+000,1.311481e-005
4.037000e+000,3.715257e-006
4.038000e+000,-1.374106e-005
4.039000e+000,-1.340537e-005
4.040000e+000,-9.845241e-007
4.041000e+000,-6.355698e-006
4.042000e+000,-1.374106e-005
4.043000e+000,2.318577e-005
4.044000e+000,6.246249e-005
4.045000e+000,5.205584e-005
4.046000e+000,1.177202e-005
4.047000e+000,-1.239827e-005
4.048000e+000,-2.314063e-005
4.049000e+000,-1.844085e-005
4.050000e+000,-8.369887e-006
4.051000e+000,-1.541955e-005
4.052000e+000,-1.911224e-005
4.053000e+000,-1.541955e-005
